timestamp,emg1,emg2,emg3,emg4,emg5,emg6,emg7,emg8,position
3414146845,-19,-5,0,-3,1,-19,7,-42,1
3414146845,4,4,-1,0,4,41,-14,6,1
3414147585,25,-9,-1,10,12,-26,24,76,1
3414147585,4,12,2,3,-2,-9,-18,-39,1
3414148385,37,1,-7,10,7,54,38,38,1
3414148385,-14,-3,2,-4,3,11,32,-20,1
3414151149,-13,3,-1,-6,-7,2,-91,-12,1
3414151149,-11,-7,3,-2,-8,-50,6,-18,1
3414159017,-8,-1,-2,-1,-1,-20,-6,-9,1
3414159017,61,7,-8,9,9,-78,-7,43,1
3414175401,-17,1,0,-10,-11,24,17,-34,1
3414175401,-11,-1,-3,-5,-3,-29,13,-13,1
3414177217,-18,-1,2,-4,-9,-6,-29,-13,1
3414177217,-17,-4,2,-6,-6,-1,-9,-5,1
3414189536,-3,1,1,-3,-2,2,2,-60,1
3414189536,-1,-4,-4,-3,-3,-15,9,11,1
3414196198,6,1,-6,0,-3,16,-3,-10,1
3414196198,5,1,2,-2,8,72,-29,-1,1
3414210794,1,-3,0,2,1,-14,22,19,1
3414210794,-31,-8,-5,-2,-2,27,-7,-10,1
3414220160,33,7,7,5,7,-25,-21,39,1
3414220160,-5,-2,-2,5,-1,5,60,30,1
3414234463,-17,0,-3,-5,-4,0,-41,-12,1
3414234463,0,-3,2,1,9,32,-29,-5,1
3414274022,-15,-8,0,2,6,65,-11,18,1
3414274022,12,1,-2,-2,-5,-3,0,-3,1
3414274846,-2,-2,-2,-4,-8,-28,11,-2,1
3414274846,10,0,-3,8,13,2,-6,-5,1
3414275637,5,2,3,-4,-2,-22,16,48,1
3414275637,-4,-4,-2,0,-4,-1,-12,3,1
3414278748,-6,2,-1,0,-2,-47,-8,-3,1
3414278748,-2,0,0,-4,-6,20,-37,-35,1
3414285681,9,1,2,-3,0,-6,30,23,1
3414285681,-24,-2,3,-5,-4,-69,-38,-35,1
3414293072,24,9,2,0,3,57,-19,-20,1
3414293072,-7,-8,1,0,-3,-28,6,14,1
3414302067,-14,3,2,-2,-4,-17,-36,-43,1
3414302067,8,-5,1,1,-4,-20,32,67,1
3414316302,-7,-5,-5,0,0,28,27,-16,1
3414316302,-3,3,1,2,2,11,3,-8,1
3414323117,-7,-6,1,-13,-18,-72,-45,42,1
3414323117,32,3,1,12,14,96,89,16,1
3414347541,5,0,-7,4,7,11,-2,-41,1
3414347541,-8,-1,1,-6,-4,19,20,10,1
3414349048,-6,-2,-3,-3,-12,-71,45,-6,1
3414349048,-20,2,7,-5,-3,-5,-14,-14,1
3414361295,6,-3,2,-2,-2,-3,-25,14,1
3414361295,-17,-4,0,-10,-15,-44,-57,-54,1
3414368132,7,5,5,1,-2,2,10,10,1
3414368132,10,-1,-5,1,-2,2,-32,-40,1
3414384520,4,-2,-3,2,6,18,12,50,1
3414384520,-11,1,3,-6,-5,-20,-1,-4,1
3414386141,3,-4,-5,6,7,33,-3,-15,1
3414386141,7,5,-1,2,5,23,-11,12,1
3414406954,-9,1,0,-2,-5,-24,17,30,1
3414406954,5,1,-2,1,-1,-11,-23,33,1
3414408626,13,1,-11,6,3,-3,10,-7,1
3414408626,-12,2,6,-5,-2,25,8,1,1
3414421532,-12,-6,0,0,-1,3,17,-18,1
3414421532,14,7,-1,4,4,43,22,27,1
3414428079,2,-2,-1,-1,1,2,-25,-10,1
3414428079,-10,-3,-5,-3,-5,-36,-21,-11,1
3414444452,-4,-2,5,-1,-3,-13,5,3,1
3414444452,23,1,-6,5,5,7,47,13,1
3414446083,-9,2,3,1,5,31,-11,-33,1
3414446083,2,1,-3,-2,-4,-14,-17,10,1
3414466915,-2,0,3,-3,-1,-7,7,-4,1
3414466915,-7,-4,-3,-3,-1,-20,-13,-5,1
3414468510,5,1,-3,2,9,39,15,-3,1
3414468510,-7,-2,0,-5,-3,4,11,-8,1
3414481352,1,-2,2,-1,-4,-10,-34,3,1
3414481352,-9,1,2,-1,-3,-9,28,-5,1
3414488138,0,-4,-4,-3,2,19,-17,-16,1
3414488138,4,-2,0,0,-8,-46,-23,53,1
3414504475,7,3,-1,4,9,66,18,-18,1
3414504475,6,1,1,2,0,-11,2,23,1
3414506060,-8,1,0,-1,-5,4,-2,-10,1
3414506060,3,-2,-4,0,-3,-32,-14,9,1
3414526918,-3,0,1,1,4,-6,-14,11,1
3414526918,-2,-1,1,0,1,-9,-9,5,1
3414528524,-5,0,6,-5,-8,-15,-4,4,1
3414528524,3,-1,-3,5,10,-12,16,-12,1
3414541241,-21,0,1,-13,-13,-58,-98,-31,1
3414541241,-4,-5,3,-4,-4,32,29,7,1
3414548131,-3,1,1,5,6,1,1,-18,1
3414548131,-1,1,0,0,4,37,5,-2,1
3414564451,-1,-5,-3,-5,-10,-18,-12,36,1
3414564451,-12,-2,-1,-3,-2,-10,-8,-7,1
3414566042,-3,-1,-1,0,-1,15,14,-41,1
3414566042,6,2,-1,3,5,34,23,32,1
3414586925,4,3,-1,5,3,-12,11,2,1
3414586925,-2,0,-2,-3,-3,-2,-44,-30,1
3414588672,5,-2,4,-3,-7,-47,39,41,1
3414588672,-8,-1,-1,0,1,65,24,-54,1
3414601273,2,-2,-2,2,4,61,4,-7,1
3414601273,0,-2,-6,6,2,-7,1,-2,1
3414608044,8,1,0,-1,-5,-29,-3,35,1
3414608044,12,-1,-1,3,4,-3,82,6,1
3414624889,3,4,-3,2,-3,-9,-24,21,1
3414624889,0,-3,-3,3,8,-15,12,-49,1
3414626755,14,3,-5,3,3,-7,2,31,1
3414626755,-7,-1,0,-5,-8,-9,-28,2,1
3414646943,2,-2,0,-2,-5,-40,51,54,1
3414646943,4,3,1,10,16,90,43,-4,1
3414648591,-8,-2,-1,1,5,3,-11,-32,1
3414648591,1,1,-4,4,1,-28,9,12,1
3414660551,-6,2,-2,0,0,37,12,-22,1
3414660551,-8,-3,0,0,-3,-18,-10,35,1
3414669598,1,-1,2,-3,-1,3,-9,-2,1
3414669598,-11,-3,2,-8,-5,-23,19,-30,1
3414684427,3,-2,5,-3,-3,-7,-3,37,1
3414684427,6,-5,-4,0,-5,-6,17,14,1
3414686027,-1,-3,-2,0,3,16,-9,-3,1
3414686027,-18,2,3,-8,-8,16,-34,-31,1
3414707009,-3,1,-2,3,0,-12,23,-32,1
3414707009,11,0,-3,3,10,59,1,46,1
3414708608,-17,-3,0,-10,-9,-14,-18,-5,1
3414708608,4,-4,-4,3,1,11,-21,52,1
3414720635,-5,2,2,-4,-2,0,21,-49,1
3414720635,-5,4,1,-4,-5,-30,-22,-12,1
3414729605,15,0,-4,8,6,45,25,4,1
3414729605,7,1,-4,3,3,0,11,-12,1
3414744431,-14,-3,1,-2,2,-4,-11,3,1
3414744431,-7,-1,1,-5,-6,-42,-21,-6,1
3414747381,-5,2,0,-1,-4,-20,-10,-8,1
3414747381,1,-9,7,-8,-5,-15,10,-34,1
3414766940,16,-2,4,-3,-2,-3,-23,5,1
3414766940,7,4,-2,2,-1,-9,25,1,1
3414768543,2,-3,-1,1,0,-10,28,10,1
3414768543,-6,2,-1,-1,4,25,-31,-10,1
3414780733,3,-5,-1,1,-3,-13,42,-3,1
3414780733,16,9,0,-3,1,7,-97,15,1
3414789671,-6,-4,0,-2,2,31,-5,2,1
3414789671,4,2,-3,2,1,-25,5,21,1
3414804487,-6,0,4,-1,-1,4,-1,-7,1
3414804487,1,-1,2,-4,-4,-23,15,-14,1
3414806145,4,-1,0,1,-2,-4,-24,-7,1
3414806145,-1,-2,3,-2,-2,-16,-31,4,1
3414826934,-8,0,-4,0,2,4,1,-10,1
3414826934,-6,-1,0,1,-3,37,20,-25,1
3414828527,-7,1,0,-4,-5,-12,-38,-41,1
3414828527,-1,-1,-1,1,-1,-10,3,7,1
3414840640,-2,0,-9,3,4,-14,20,9,1
3414840640,-7,0,3,1,1,1,-15,9,1
3414849605,1,1,1,-2,-1,-5,9,-7,1
3414849605,-2,1,-2,1,1,1,-4,-13,1
3414864623,-5,-2,-2,-4,-3,-9,-23,2,1
3414864623,0,-1,-3,-3,-2,20,-4,-21,1
3414866061,-4,-3,-3,-4,-4,7,13,9,1
3414866061,2,1,1,5,-1,-6,44,3,1
3414886930,2,-1,-1,1,0,-1,-33,-11,1
3414886930,-2,1,0,0,-3,-39,27,-3,1
3414888607,-3,1,0,4,0,47,-17,12,1
3414888607,-7,-1,2,0,2,31,6,-2,1
3414900680,2,0,1,-3,-1,1,19,-1,1
3414900680,1,0,-1,2,-1,-2,16,9,1
3414909598,-3,-5,-2,1,-2,-42,-2,1,1
3414909598,-4,-3,1,-5,-2,9,-33,-5,1
3414924429,-9,1,1,-2,-1,18,6,-20,1
3414924429,-10,-9,1,-8,-8,-32,-12,30,1
3414926043,6,4,0,6,5,14,83,-27,1
3414926043,-3,-2,-5,0,-2,-12,-13,0,1
3414946983,3,2,0,-2,-8,-23,-14,34,1
3414946983,-11,-1,2,-3,4,-11,-11,-44,1
3414948609,-4,0,-1,-2,-3,5,-43,4,1
3414948609,4,0,0,-1,-3,-28,2,3,1
3414960550,11,-1,-2,3,1,-18,-13,19,1
3414960550,-3,-1,-4,1,-1,31,75,5,1
3414969647,3,2,1,-2,0,-27,-25,-41,1
3414969647,13,1,0,0,1,11,5,35,1
3414984462,-6,-2,-4,-5,-7,-20,-11,18,1
3414984462,3,-3,3,0,0,-13,0,-10,1
3414986066,-2,-3,0,-3,0,31,22,-44,1
3414986066,16,6,2,1,0,14,4,23,1
3415006990,0,-2,-1,4,2,3,24,7,1
3415006990,1,1,0,-3,-4,9,-10,-4,1
3415008726,-5,-1,-3,1,1,6,4,21,1
3415008726,-6,-2,-2,0,2,-1,-54,-30,1
3415020675,1,-1,3,-6,-1,29,11,-11,1
3415020675,8,3,2,2,1,6,-11,25,1
3415029596,-7,-10,0,-3,-6,-14,-37,15,1
3415029596,-8,1,3,-3,-1,-33,-10,-19,1
3415044438,17,0,-4,6,7,84,7,28,1
3415044438,-8,-3,-3,-8,-6,-26,-1,-21,1
3415046148,2,6,-1,0,1,-21,-3,16,1
3415046148,-12,-3,3,-5,-6,-4,13,-9,1
3415066964,2,0,-1,10,11,21,6,-9,1
3415066964,8,0,-2,-1,-4,-6,2,24,1
3415068577,14,1,-6,3,4,28,-17,6,1
3415068577,-2,1,-5,4,4,-4,8,-9,1
3415089527,-18,0,1,-3,-3,-27,9,-27,1
3415089527,14,-1,-1,4,6,36,-22,-50,1
3415091113,6,2,0,-1,1,-15,24,73,1
3415091113,-4,-3,-3,0,-4,17,-1,-2,1
3415104727,-4,-6,-3,-4,-9,-64,-2,-23,1
3415104727,-1,4,-1,1,3,10,-6,6,1
3415106728,-3,-10,2,-5,-5,-5,-13,22,1
3415106728,-3,0,1,0,2,-9,-6,-4,1
3415127960,3,1,1,-4,-9,11,4,-9,1
3415127960,-3,-3,-1,-2,-2,-19,-33,-7,1
3415128921,7,4,0,4,2,-2,29,-26,1
3415128921,14,1,0,2,0,18,11,31,1
3415149450,-14,-3,1,-4,2,-11,-19,-14,1
3415149450,-18,-3,0,1,-6,-33,-4,15,1
3415151081,27,10,3,3,4,38,-4,52,1
3415151081,-4,-9,-7,-3,-5,-8,-6,-17,1
3415164637,1,-3,-2,2,-3,-21,12,31,1
3415164637,9,4,1,0,6,17,10,-13,1
3415166079,-14,-4,-3,2,0,-5,-6,-16,1
3415166079,-5,0,-2,-4,-2,-10,8,6,1
3415187071,11,-1,3,0,1,17,-34,11,1
3415187071,-5,-3,-2,-1,-1,-2,17,9,1
3415188682,-30,1,2,-4,-1,6,-11,-57,1
3415188682,17,-4,-1,4,8,38,32,33,1
3415209466,1,3,0,-3,-3,-34,5,31,1
3415209466,-20,-5,0,-3,-2,4,-26,-48,1
3415211076,30,4,0,3,4,0,66,35,1
3415211076,-20,2,-3,-1,-6,-43,-12,-16,1
3415223764,1,-1,1,3,8,17,20,-43,1
3415223764,31,-2,1,1,-5,-41,36,61,1
3415230689,2,8,-8,9,11,32,10,-6,1
3415230689,-18,-2,1,-8,-10,-14,3,-20,1
3415245636,8,1,2,-2,-3,-28,-11,3,1
3415245636,-6,-5,-6,2,5,7,7,-24,1
3415254607,6,5,4,1,7,13,-18,13,1
3415254607,0,-3,2,-6,-6,-16,-3,-18,1
3415269458,-4,6,-1,1,-1,12,-6,-11,1
3415269458,6,-8,-6,5,2,0,55,25,1
3415271174,-14,0,-2,-1,-5,-8,0,11,1
3415271174,8,-2,-5,4,9,64,-3,55,1
3415291950,-17,4,4,-6,-6,-12,-19,-63,1
3415291950,13,5,0,5,5,31,72,48,1
3415293589,-11,-10,-1,-9,-15,-38,-84,-56,1
3415293589,7,5,3,4,0,2,35,11,1
3415305670,4,-6,-3,5,6,34,9,4,1
3415305670,-10,3,3,-2,-3,9,-17,-29,1
3415314640,-9,-2,-1,3,2,6,-5,-37,1
3415314640,-16,-4,6,-17,-15,-54,-97,-21,1
3415329399,-17,-2,3,-4,-6,-17,-5,-32,1
3415329399,24,7,7,-2,-1,34,-11,20,1
3415331043,-1,-5,1,-2,-2,3,23,9,1
3415331043,3,5,-6,6,19,24,-40,-8,1
3415351946,-11,-3,-1,-6,-5,11,-19,-27,1
3415351946,-22,-13,1,-10,-11,-19,-30,-39,1
3415353610,-6,0,-2,-1,0,-36,58,10,1
3415353610,-2,3,6,-5,-9,-37,-64,-47,1
3415365671,16,1,-2,3,4,34,56,35,1
3415365671,-7,0,1,-3,-3,5,-18,20,1
3415374671,-15,0,-2,-1,0,-23,-10,-3,1
3415374671,-3,-3,4,-2,0,4,12,-36,1
3415389597,7,-1,-2,5,5,7,34,35,1
3415389597,-13,0,-2,-2,2,-1,-51,-19,1
3415391114,4,-4,3,-5,-1,-11,25,21,1
3415391114,7,2,-6,8,0,16,19,23,1
3415412005,6,1,0,-6,-1,12,-27,7,1
3415412005,-9,-5,-2,0,-2,-43,-3,-2,1
3415413602,8,-2,-2,-2,-7,-10,15,-8,1
3415413602,-3,-3,0,4,8,25,39,25,1
3415426000,6,4,-2,-4,-7,-62,2,-3,1
3415426000,-3,-3,0,3,5,32,-15,4,1
3415434624,-12,0,2,-6,-5,-4,-41,-12,1
3415434624,11,3,0,2,-4,-13,26,-10,1
3415457082,-7,-9,-5,0,-3,-43,25,3,1
3415457082,8,5,0,-1,4,98,-69,7,1
3415458593,-14,0,4,-5,-2,-78,-3,-47,1
3415458593,0,6,-1,0,-2,35,20,1,1
3415472042,-13,-7,1,-4,-9,-57,-27,-6,1
3415472042,7,-5,1,3,3,14,10,-9,1
3415473647,3,8,0,-2,1,23,-30,22,1
3415473647,-4,-9,-4,-3,-4,-23,-11,-23,1
3415485726,1,0,3,-6,-1,15,-27,-10,1
3415485726,-2,1,-3,2,0,-19,14,10,1
3415494639,6,-3,1,1,-6,-19,-20,15,1
3415494639,2,-11,-5,3,6,15,37,7,1
3415509588,3,3,3,2,2,68,-3,-3,1
3415509588,2,-2,-3,-3,-6,-41,31,11,1
3415511097,-11,-7,0,4,9,30,3,-4,1
3415511097,-1,-7,-2,-3,-5,-58,9,23,1
3415532019,8,7,-3,3,2,19,12,7,1
3415532019,1,-5,-1,1,-2,-10,34,13,1
3415533602,-3,6,0,3,-1,26,-2,20,1
3415533602,-1,-6,-2,2,8,24,10,-7,1
3415545706,-4,3,-2,-4,-3,-25,-23,-45,1
3415545706,-16,5,2,-8,-9,-31,-2,14,1
3415554656,3,-16,3,-2,-5,1,-3,-7,1
3415554656,-8,0,-1,-7,-5,-11,-40,-35,1
3415569585,6,2,-5,9,6,18,42,12,1
3415569585,-3,1,-3,-3,-8,-21,-20,4,1
3415571152,2,10,-1,1,1,3,4,-5,1
3415571152,2,0,4,-2,7,-6,17,39,1
3415591994,0,-29,-6,2,3,47,-17,-10,1
3415591994,4,2,3,-9,-8,-31,-59,-25,1
3415593576,-3,-8,1,-1,3,21,21,-30,1
3415593576,-4,7,5,-4,-15,-71,-104,16,1
3415614564,7,8,-2,11,10,55,77,28,1
3415614564,-1,-6,0,4,12,31,45,20,1
3415616164,3,2,2,-11,-2,-45,-40,-43,1
3415616164,1,-2,3,-7,-8,-5,11,6,1
3415629548,-6,-5,1,-1,2,7,-47,-4,1
3415629548,1,21,3,1,-8,-48,-15,-1,1
3415631208,1,-35,-5,0,-3,13,19,10,1
3415631208,-4,-1,3,-1,-1,-39,7,-15,1
3415652043,-3,10,0,-9,0,-3,-64,24,1
3415652043,-2,-8,4,1,1,9,18,-6,1
3415653595,-5,2,-1,-1,-6,6,8,9,1
3415653595,8,15,1,7,7,40,8,-6,1
3415674534,-4,-4,1,-5,-10,-67,-8,0,1
3415674534,15,2,-4,10,5,5,49,0,1
3415676135,5,-3,-3,1,13,63,-61,-6,1
3415676135,-8,-18,-1,-8,-13,-18,-4,-73,1
3415688895,-5,-8,2,3,3,7,11,-13,1
3415688895,-5,2,-1,-4,-6,-59,3,-6,1
3415695719,6,9,-2,7,3,62,23,36,1
3415695719,-1,4,0,3,-4,1,22,13,1
3415711959,-1,12,-7,1,9,-6,-9,-21,1
3415711959,-8,-38,-4,-7,-6,-50,-25,-14,1
3415713599,15,13,-1,6,1,16,43,28,1
3415713599,-6,-4,-7,4,10,92,-38,-1,1
3415734440,-2,1,7,-2,-8,-13,-6,9,1
3415734440,4,5,3,6,11,83,43,2,1
3415736047,-4,6,1,-7,-8,-66,-33,13,1
3415736047,16,4,0,6,10,83,51,14,1
3415749140,-8,12,0,-6,-15,-67,-21,-4,1
3415749140,-3,-2,-2,-3,1,29,2,-21,1
3415763272,0,-1,5,-2,-13,-42,-25,20,1
3415763272,11,1,-2,7,5,7,41,37,1
3415772154,0,4,2,-3,-3,-45,-12,0,1
3415772154,-10,11,1,-1,-4,1,-19,-14,1
3415773606,-6,-15,-3,-2,-6,-97,10,7,1
3415773606,3,7,3,2,4,68,15,24,1
3415794528,3,-11,-4,0,3,-3,10,1,1
3415794528,2,22,1,-2,-3,-16,-13,7,1
3415796080,-4,-7,-1,-4,0,4,8,-6,1
3415796080,-7,-5,-4,-1,-7,-48,-31,-2,1
3415808860,-6,-10,2,3,7,19,35,10,1
3415808860,10,4,3,-2,-1,58,4,-7,1
3415815704,-1,-1,-5,8,7,51,10,2,1
3415815704,-1,2,2,-6,-4,-78,39,6,1
3415832060,3,7,-1,5,7,38,10,-26,1
3415832060,1,-17,-7,-1,6,51,-6,33,1
3415833651,1,6,5,-6,-6,23,-11,0,1
3415833651,-3,3,-4,4,6,-20,-6,-32,1
3415854485,6,-1,-4,0,-1,15,9,9,1
3415854485,-10,-6,1,3,-2,-24,-35,0,1
3415856058,8,8,-5,3,3,-8,5,7,1
3415856058,-3,3,6,-4,-6,-11,-13,1,1
3415868839,13,1,-3,3,5,-4,47,18,1
3415868839,-5,2,-6,0,-1,-6,-20,-3,1
3415875722,-12,2,-2,-6,-4,-37,26,4,1
3415875722,-2,-5,3,-6,-9,-47,-19,17,1
3415899556,2,5,5,-1,-1,40,-1,11,1
3415899556,-22,-5,-7,-7,-8,-81,14,-31,1
3415901220,8,-12,0,2,2,3,28,10,1
3415901220,5,6,2,-4,-1,20,6,-16,1
3415914464,1,3,0,-1,-7,-12,-33,-3,1
3415914464,4,2,0,2,0,9,21,14,1
3415916121,-16,0,1,-6,-3,30,-39,-54,1
3415916121,5,-5,-4,0,0,11,-12,-9,1
3415928880,-16,-9,-2,-6,-9,-21,-25,4,1
3415928880,9,9,0,2,0,29,-6,2,1
3415935652,-2,-2,-2,3,5,41,-19,-20,1
3415935652,-1,9,-2,-2,-7,-11,5,7,1
3415951717,5,2,-4,5,7,44,-24,-7,1
3415951717,-6,3,0,0,-8,-57,22,-5,1
3415958187,-4,-6,7,-5,1,26,-19,2,1
3415958187,4,4,-5,2,1,-25,12,-12,1
3415974516,-2,-9,-8,0,1,2,-12,17,1
3415974516,-5,-6,2,-4,4,66,-16,-2,1
3415976109,0,10,2,2,-5,-11,23,-5,1
3415976109,10,-4,-2,3,2,15,-8,2,1
3415988749,3,0,0,-1,-4,-50,7,-10,1
3415988749,-1,-26,2,-1,1,6,13,-5,1
3415995642,9,23,0,0,-3,-29,-4,20,1
3415995642,-6,-18,-4,-1,4,33,-8,-3,1
3416011993,-2,11,-3,-7,-9,-64,3,2,1
3416011993,-3,-6,3,-4,-3,-51,-15,-13,1
3416013590,5,-1,-1,5,3,67,7,1,1
3416013590,-13,1,1,-3,-9,-50,2,-1,1
3416034517,5,-5,1,-1,-6,-23,10,4,1
3416034517,14,11,-6,10,12,90,31,0,1
3416036108,9,0,-7,2,2,-43,20,23,1
3416036108,5,-7,2,-4,-7,-18,4,8,1
3416048203,-6,17,3,2,11,31,11,-4,1
3416048203,0,7,-2,3,0,14,-1,5,1
3416056430,-7,-7,1,-7,-12,-56,-52,-21,1
3416056430,-2,7,-5,2,9,74,-6,-4,1
3416071988,-18,-15,3,-6,-7,-21,-26,-8,1
3416071988,7,14,-1,1,-1,-4,-10,6,1
3416072028,-6,-13,-2,-1,5,31,14,-4,1
3416072028,-6,6,-1,-5,-9,-66,-26,-11,1
3416093722,2,-3,-3,8,7,54,54,25,1
3416093722,4,8,2,-3,0,-23,3,-24,1
3416094540,-15,-3,-3,-1,-6,-11,3,9,1
3416094540,-4,-4,-1,2,5,31,8,-2,1
3416116449,-1,-6,-2,1,3,1,-11,-7,1
3416116449,1,-1,1,-2,-4,-51,-2,13,1
3416117747,4,3,-1,-1,3,28,31,-4,1
3416117747,-3,-12,3,0,2,20,-3,-6,1
3416131258,0,7,2,-3,-2,11,-9,-7,1
3416131258,-5,-1,-1,-5,-5,-42,-7,12,1
3416132017,-2,-3,3,0,4,-4,0,-19,1
3416132017,7,-5,-3,0,5,9,-23,15,1
3416153799,11,-3,2,7,2,12,69,1,1
3416153799,-8,-12,-5,-4,-8,-37,14,2,1
3416154632,16,11,-2,5,7,69,5,5,1
3416154632,5,7,-4,2,6,3,22,3,1
3416177040,-9,-16,1,-2,1,-5,-20,-7,1
3416177040,0,-1,-2,-5,-6,-54,-10,-4,1
3416177869,3,5,0,1,-1,15,-8,3,1
3416177869,-5,1,2,-1,-2,9,21,1,1
3416191376,4,-7,1,-6,-5,5,-32,-3,1
3416191376,4,6,-2,5,9,62,16,1,1
3416192104,-9,7,4,-7,-7,-37,-15,1,1
3416192104,-2,-5,-1,2,0,1,-9,-4,1
3416213904,3,11,-3,-1,-1,0,-1,1,1
3416213904,-16,-9,1,-4,-8,-25,-75,-5,1
3416214652,14,-2,3,-2,-2,-7,29,8,1
3416214652,-2,1,2,-2,-2,-9,2,-10,1
3416237079,-6,-5,2,-6,-8,-42,-10,0,1
3416237079,17,8,-3,8,12,92,43,18,1
3416237790,-9,-5,-1,3,7,-22,-32,-22,1
3416237790,5,1,-3,1,-2,14,-28,2,1
3416251226,9,8,2,1,-3,7,22,5,1
3416251226,-5,2,0,1,2,1,14,3,1
3416252103,3,-15,-4,5,1,31,23,4,1
3416252103,-11,-1,1,-3,-4,-12,-17,-6,1
3416273781,-9,-6,0,-7,-5,-36,-29,-2,1
3416273781,7,1,-1,-2,-4,37,8,-15,1
3416274688,6,1,1,-1,-1,-10,5,23,1
3416274688,-12,-5,-4,-3,-2,-21,-13,-6,1
3416296334,-3,-8,1,-5,-7,-20,-22,-3,1
3416296334,-3,-10,3,3,4,-1,1,8,1
3416297141,-6,-10,-3,0,-2,-16,10,-5,1
3416297141,4,12,-2,2,-7,-39,-17,-12,1
3416311221,7,4,-3,5,9,39,36,14,1
3416311221,-1,2,-1,-4,-1,11,-16,-5,1
3416312028,-1,-7,-6,0,-3,-8,9,2,1
3416312028,-12,-14,-1,4,6,40,-9,-14,1
3416333815,1,14,-1,2,1,-8,9,20,1
3416333815,5,-1,4,-5,-7,-27,-9,-10,1
3416334621,-1,4,-7,9,12,46,4,5,1
3416334621,7,-5,1,-1,3,30,16,3,1
3416356316,-16,-22,-2,-2,-5,-11,-86,-36,1
3416356316,4,13,0,3,-2,-21,-1,9,1
3416357073,2,5,0,1,5,-6,11,-38,1
3416357073,13,1,0,0,-4,-26,28,46,1
3416371408,1,2,-6,-1,1,12,38,0,1
3416371408,-17,-13,0,-7,-5,-28,-85,-24,1
3416372175,0,7,2,-4,-9,-2,9,-14,1
3416372175,-1,5,-3,4,11,-5,-3,17,1
3416393830,10,-7,-2,-2,2,28,34,4,1
3416393830,-12,1,-2,-4,-6,-24,-28,13,1
3416394689,4,0,-2,-1,-2,-32,-5,17,1
3416394689,0,17,1,0,2,41,-15,-15,1
3416416355,-14,-19,0,1,-7,-21,29,-1,1
3416416355,10,14,-4,5,11,24,26,-7,1
3416417119,4,-4,-2,-1,-1,-2,13,20,1
3416417119,-4,-1,-2,0,0,-10,20,1,1
3416431332,1,2,-3,-3,1,-20,-43,-13,1
3416431332,-2,-3,1,1,-1,5,18,-22,1
3416432087,-10,4,3,-3,-5,-38,34,46,1
3416432087,14,-1,-2,-1,4,1,0,-30,1
3416453821,-1,20,3,1,-2,3,-5,0,1
3416453821,0,-8,-4,1,-4,-7,-6,6,1
3416454537,3,5,2,-6,-8,-11,19,2,1
3416454537,-16,6,3,-6,-6,-39,9,6,1
3416476368,9,-5,-2,4,6,47,24,4,1
3416476368,0,-7,0,-3,1,10,-6,15,1
3416477070,-13,-4,2,-5,-7,-49,-20,-20,1
3416477070,6,1,-2,5,5,45,12,27,1
3416491294,-3,-4,-3,-2,-5,0,-8,-5,1
3416491294,0,6,-4,8,13,4,15,5,1
3416492046,-6,4,3,-1,0,54,-66,-29,1
3416492046,9,-2,0,2,-3,-4,15,-13,1
3416513938,-1,11,1,-1,4,10,-14,-20,1
3416513938,-11,-18,0,-7,-6,-64,-18,25,1
3416514814,-1,-1,1,-4,1,-7,-27,0,1
3416514814,-1,2,2,-1,-5,14,-5,-5,1
3416536358,5,2,0,3,6,38,9,-7,1
3416536358,-1,0,-1,1,1,-6,-19,-4,1
3416537170,5,-1,-1,-1,-4,17,34,-14,1
3416537170,1,-7,-3,2,3,-6,24,11,1
3416551368,-6,-2,0,-8,-7,-32,-42,-2,1
3416551368,-5,-7,0,-5,-7,-16,10,5,1
3416552074,5,-6,-2,7,1,-18,4,-7,1
3416552074,5,-1,-2,4,7,41,19,4,1
3416573861,-24,-1,4,-5,-6,-1,-3,-30,1
3416573861,10,5,1,2,-1,-7,27,21,1
3416574606,-12,-3,0,-5,1,13,18,-13,1
3416574606,-7,5,2,-9,-7,-60,-38,-12,1
3416596285,14,0,-2,3,6,37,2,14,1
3416596285,-12,-5,4,-2,-8,-14,-4,-29,1
3416597091,5,-1,-2,4,7,43,5,5,1
3416597091,-7,-7,-1,-2,-4,3,-23,-11,1
3416611223,7,2,3,-2,2,-53,-1,20,1
3416611223,-7,3,1,-4,-5,13,17,-7,1
3416612060,0,1,0,-6,-10,-50,-68,7,1
3416612060,6,-7,-2,6,8,44,46,-5,1
3416633730,-6,-3,-1,-3,-8,-29,-6,3,1
3416633730,7,5,-1,8,11,24,14,20,1
3416634532,-2,-2,-2,1,-1,-11,-10,-5,1
3416634532,-7,-10,-1,-7,-10,-26,-20,-9,1
3416656224,1,4,1,0,3,2,11,-6,1
3416656224,14,5,-2,3,-1,40,33,24,1
3416657057,1,-6,-5,-3,1,9,33,2,1
3416657057,2,-4,-3,6,5,11,22,-1,1
3416671240,-8,2,2,-5,-1,9,-62,-22,1
3416671240,-5,-5,3,-1,8,18,14,-15,1
3416672080,5,4,-2,4,2,45,14,-5,1
3416672080,-12,0,2,-4,-11,-19,-21,8,1
3416693774,2,-5,-2,1,6,17,-2,-7,1
3416693774,4,0,0,0,1,-3,-8,-8,1
3416694551,-8,4,4,-4,-6,-67,-4,-4,1
3416694551,-3,-2,-7,2,2,27,-7,4,1
3416716432,0,2,2,-4,-4,14,-18,5,1
3416716432,1,1,-2,2,2,7,-8,-9,1
3416717199,1,-6,-1,2,-8,-50,16,8,1
3416717199,0,0,1,0,1,51,-22,-1,1
3416731315,0,1,-1,3,-3,-32,19,-1,1
3416731315,7,-7,-5,3,6,90,36,15,1
3416732041,-8,0,-1,-1,3,42,-30,-1,1
3416732041,1,6,5,-3,-2,-35,27,-2,1
3416753736,12,-5,-5,3,6,43,-28,34,1
3416753736,1,0,3,-6,-9,-31,40,-5,1
3416754554,5,9,-6,8,6,-10,-3,14,1
3416754554,2,3,1,0,-2,-27,-10,14,1
3416776336,11,3,-9,4,3,35,54,3,1
3416776336,1,-1,0,-2,-3,-24,-42,11,1
3416777080,-8,-1,-2,3,13,27,3,-26,1
3416777080,-3,-4,-3,0,-4,-31,-3,25,1
3416791431,-12,-3,3,-6,-14,-59,65,-16,1
3416791431,10,3,-8,0,4,25,-47,-18,1
3416792055,-9,-6,1,-7,-5,-16,-25,11,1
3416792055,-20,-4,4,-5,-5,-44,-52,-39,1
3416814107,16,1,-3,14,11,54,60,23,1
3416814107,-9,6,-1,-3,-3,2,3,-1,1
3416814668,5,2,-1,-4,-8,-19,-17,-14,1
3416814668,9,-6,-1,5,14,50,16,0,1
3416836268,8,7,0,6,6,2,3,25,1
3416836268,-5,-5,-3,2,-1,-40,14,-12,1
3416837009,0,-4,-3,5,4,58,-7,1,1
3416837009,12,2,-4,0,3,37,4,19,1
3416851403,-30,-3,-1,-10,-12,-81,-28,-47,1
3416851403,20,3,4,0,-2,-32,-27,9,1
3416852062,-8,5,0,-4,-5,-8,25,8,1
3416852062,2,-1,0,0,-5,-50,6,-4,1
3416873839,-8,-6,3,-11,-7,-8,39,-7,1
3416873839,-12,-1,-4,3,2,-17,-26,-8,1
3416874634,6,1,3,2,7,33,-2,8,1
3416874634,-8,2,3,-3,-7,-8,8,-23,1
3416896390,21,3,-6,6,5,-38,-33,37,1
3416896390,-8,-10,3,-9,-17,-5,-9,-6,1
3416897086,16,0,0,9,8,47,21,17,1
3416897086,-20,-4,1,-2,-2,15,-21,12,1
3416911330,-2,-1,1,1,-5,-31,0,-7,1
3416911330,4,1,-3,0,-1,-25,32,28,1
3416912089,9,7,-4,-1,-3,17,-71,19,1
3416912089,6,-17,2,-3,-4,-19,6,26,1
3416934164,-4,4,4,1,-2,31,-19,-2,1
3416934164,-15,-4,0,-6,-9,-63,-61,-33,1
3416934527,10,2,6,-1,6,8,44,18,1
3416934527,-5,6,-6,0,2,-13,28,-8,1
3416956285,-7,-7,1,-1,0,4,-62,-6,1
3416956285,11,3,-4,8,6,72,72,26,1
3416957066,4,-3,-6,1,-1,-8,11,8,1
3416957066,5,3,-1,-3,-2,-45,9,-9,1
3416971309,-5,-7,4,0,11,7,-66,-7,1
3416971309,0,4,-1,2,-3,-17,76,-1,1
3416972029,-6,-3,0,-5,-1,6,9,-25,1
3416972029,-8,-3,0,-6,-13,-26,0,-15,1
3416993879,20,3,-4,3,3,41,32,43,1
3416993879,-20,0,5,-8,-4,-38,-42,-18,1
3416994623,0,-3,1,0,-2,-12,4,-12,1
3416994623,8,-1,-3,1,-1,-18,-41,34,1
3417016340,8,1,0,2,3,20,15,-8,1
3417016340,0,3,0,-1,4,33,0,-1,1
3417017070,-13,-2,2,0,-9,-60,58,16,1
3417017070,12,-1,-1,6,20,71,-48,-42,1
3417031360,-7,-1,1,-9,-11,-23,-11,5,1
3417031360,7,0,2,0,-3,4,17,13,1
3417032099,-9,-2,-1,-2,-7,-88,-32,21,1
3417032099,6,2,2,5,10,69,64,-19,1
3417053838,-5,-1,-6,5,7,38,-1,-10,1
3417053838,-4,4,-1,-6,-5,-23,-6,-14,1
3417054556,3,-2,0,-3,-3,-9,-42,13,1
3417054556,-5,0,3,-4,-4,-8,-12,10,1
3417076295,-8,-3,0,-3,-4,-25,-25,-24,1
3417076295,4,-3,2,-1,-1,11,-20,26,1
3417077078,0,0,-3,4,2,32,30,-15,1
3417077078,-20,0,3,-11,-11,-35,-73,-82,1
3417091275,30,5,-7,15,16,50,110,91,1
3417091275,-7,-4,-3,-2,1,-7,-26,-55,1
3417092099,7,-1,-5,5,7,42,-33,9,1
3417092099,-1,3,3,-4,-9,-29,-1,12,1
3417113840,5,-1,-1,0,0,21,2,14,1
3417113840,-7,1,-2,3,6,21,-19,-10,1
3417114629,1,-4,2,0,-1,-9,26,10,1
3417114629,3,1,-3,0,-3,0,15,11,1
3417136220,-2,1,-1,4,11,60,-32,-40,1
3417136220,11,0,0,1,2,22,-13,45,1
3417137040,-19,-5,3,-8,-7,-48,-25,-47,1
3417137040,10,-1,2,-3,-9,-15,12,23,1
3417150783,-11,2,-2,-2,-2,-25,2,-4,1
3417150783,-8,-5,5,-2,5,-20,-11,13,1
3417158871,-3,-3,-1,-7,-12,-27,38,-7,1
3417158871,-15,-2,5,-4,-3,-65,25,1,1
3417173756,6,-1,-4,0,-2,22,21,-16,1
3417173756,-8,-1,-3,-1,-5,-24,-2,-7,1
3417174538,10,1,-3,0,2,10,-14,2,1
3417174538,16,2,-6,5,8,21,65,93,1
3417196255,-8,0,-1,1,-4,-33,-29,-27,1
3417196255,-2,0,6,1,2,5,2,-3,1
3417197022,4,1,2,0,0,16,9,-8,1
3417197022,-4,-3,-8,0,0,8,9,-17,1
3417210732,2,-3,1,-3,-4,10,-13,24,1
3417210732,3,-1,0,-6,-13,-60,37,53,1
3417218604,-22,-1,-2,8,20,48,-78,-74,1
3417218604,3,2,3,-1,0,28,32,1,1
3417233844,-10,-3,3,-1,-8,-61,10,-15,1
3417233844,3,-1,-5,2,4,43,28,-19,1
3417234543,12,0,-1,-5,-8,-30,12,48,1
3417234543,-14,-1,1,-3,-6,-57,-99,-81,1
3417256305,13,0,8,-3,2,41,52,25,1
3417256305,-4,-3,2,-3,0,7,-13,-21,1
3417257072,3,1,-3,0,-4,-33,23,52,1
3417257072,-7,-5,3,-1,-1,65,-29,-36,1
3417270689,5,6,2,-6,-5,-30,-36,17,1
3417270689,-24,-1,2,1,6,46,-8,-93,1
3417278937,5,-2,3,-1,2,1,0,17,1
3417278937,6,5,-6,1,-1,-10,8,12,1
3417293876,-15,-5,1,-8,-9,-36,-32,-11,1
3417293876,11,2,-6,4,9,-25,38,41,1
3417294605,-4,4,2,-4,-7,1,-34,-35,1
3417294605,5,0,1,1,2,-13,-2,23,1
3417316294,-11,-4,-3,6,11,29,-1,-14,1
3417316294,9,1,3,-4,-3,14,33,31,1
3417317026,-11,-3,-2,-5,-3,-13,-14,-24,1
3417317026,16,2,0,5,4,-3,8,32,1
3417330668,-10,-2,0,-5,-10,-59,-2,-30,1
3417330668,3,-1,0,-1,4,16,-53,-23,1
3417338797,3,-1,1,2,3,14,13,-8,1
3417338797,-10,-3,-7,-1,4,35,59,41,1
3417353778,8,0,1,-5,-7,-48,-5,-34,1
3417353778,3,0,-6,2,5,38,-32,12,1
3417354553,-1,-4,1,-4,-5,-16,3,16,1
3417354553,1,4,-1,3,5,42,-4,-51,1
3417376346,6,1,-4,4,6,-25,10,55,1
3417376346,4,-1,-1,-8,-7,2,46,-6,1
3417377061,2,1,0,2,2,9,7,6,1
3417377061,-3,-3,-1,2,-1,-2,-5,0,1
3417399523,-6,-3,-4,2,0,-17,-5,-14,1
3417399523,4,0,-2,0,-4,-17,-3,7,1
3417400277,-5,2,-7,1,11,37,-3,-31,1
3417400277,-2,-6,4,-4,-4,-8,54,29,1
3417413825,8,2,-2,0,1,41,16,-16,1
3417413825,-1,-1,1,4,0,-16,0,14,1
3417414632,-1,-1,-1,-4,-3,-3,-22,-20,1
3417414632,16,0,-10,4,-2,-45,16,14,1
3417436367,4,2,1,0,7,49,-17,27,1
3417436367,-8,-2,-5,0,0,40,23,-43,1
3417437045,-1,-5,3,0,-4,-23,-13,1,1
3417437045,-6,1,4,-9,-10,-22,-37,-5,1
3417450698,0,-2,-8,10,24,40,34,-3,1
3417450698,5,-2,-4,-2,-6,-21,-10,12,1
3417458875,-4,2,0,1,-1,5,23,10,1
3417458875,-14,-1,1,-3,-2,-50,-82,-21,1
3417473871,5,1,1,0,-7,10,37,-6,1
3417473871,10,1,0,1,-1,-11,-16,20,1
3417474636,-13,-1,-1,-2,-4,-9,-5,-10,1
3417474636,14,2,5,3,10,14,20,19,1
3417496278,-6,-3,-2,-8,-11,-20,12,-2,1
3417496278,-7,-1,2,1,1,-7,-8,-45,1
3417497021,10,-3,1,-5,-5,-12,-2,24,1
3417497021,-14,-1,-1,-5,-5,-17,-75,-34,1
3417519823,2,0,-5,2,5,45,-27,-21,1
3417519823,-3,-2,4,-1,-2,13,8,25,1
3417520419,-1,1,-7,0,1,-43,3,-4,1
3417520419,3,1,-2,1,1,4,27,2,1
3417533731,-4,1,3,-5,-6,-12,13,-10,1
3417533731,-5,0,2,-6,-7,1,-105,-24,1
3417534515,3,-2,2,1,8,0,1,-30,1
3417534515,-3,0,-6,1,0,24,31,65,1
3417556315,-6,-1,6,-3,-10,-38,17,-6,1
3417556315,-2,2,-4,3,6,-8,-3,8,1
3417557101,9,0,-1,1,-5,-3,6,9,1
3417557101,2,3,1,1,3,8,-11,-16,1
3417579522,3,-1,-1,1,4,31,18,1,1
3417579522,3,-5,1,0,-1,3,1,48,1
3417580198,10,4,-2,4,9,64,25,-15,1
3417580198,-5,-4,-3,-1,-3,-27,-6,23,1
3417593893,-22,-1,7,-7,-11,-18,-29,-17,1
3417593893,4,-1,-4,1,-2,-21,6,-6,1
3417594679,-17,2,3,-3,-5,12,-66,-8,1
3417594679,6,1,3,1,2,21,62,6,1
3417616343,-8,6,1,-6,-7,-30,-25,-24,1
3417616343,1,-25,-5,1,4,2,11,10,1
3417617151,0,8,1,-6,-11,-46,-7,22,1
3417617151,-3,-2,0,-2,3,5,15,3,1
3417639524,-4,-3,2,-1,-5,-24,-34,-1,1
3417639524,3,9,2,0,1,1,23,-8,1
3417640304,0,-10,-7,-2,-4,-33,38,-6,1
3417640304,-2,-3,3,-4,-5,20,-12,-14,1
3417653844,8,-7,-1,-4,-1,-44,12,-4,1
3417653844,1,1,0,-1,2,29,14,2,1
3417654606,4,0,2,2,1,28,17,11,1
3417654606,-34,-8,-4,1,1,9,-3,-31,1
3417676715,13,9,-2,0,0,14,0,28,1
3417676715,-11,-16,-3,3,3,-20,-48,-23,1
3417677481,11,4,2,-1,4,34,18,10,1
3417677481,10,15,1,-2,-2,-7,8,0,1
3417707013,-11,2,-5,10,12,14,5,14,1
3417707013,-1,5,4,-6,-13,-67,-28,-17,1
3417707780,-20,-11,2,-6,-6,-25,-3,12,1
3417707780,13,2,1,-1,0,32,-45,-38,1
3417713838,2,3,-3,1,-2,-3,66,9,1
3417713838,0,20,1,6,6,17,28,14,1
3417714550,-27,0,0,-3,-4,-48,-9,-60,1
3417714550,15,-6,2,-8,-7,-3,55,21,1
3417736286,0,-2,-5,-4,-5,-3,-33,-3,1
3417736286,-16,0,1,-5,-3,15,-33,-55,1
3417737077,17,1,3,0,-2,14,10,23,1
3417737077,-7,-2,-6,3,-1,-44,-8,2,1
3417759557,6,-2,-1,2,8,63,-4,-27,1
3417759557,-9,-9,5,-8,-5,-19,0,-15,1
3417760266,7,6,-1,3,0,9,-21,10,1
3417760266,-18,-19,-2,2,1,-11,10,-9,1
3417773793,7,11,2,-1,-7,-20,-14,38,1
3417773793,-12,-7,-4,1,3,49,53,-15,1
3417774571,-14,3,3,-3,-2,12,9,-19,1
3417774571,14,-2,0,-2,-4,-14,-11,-9,1
3417796291,-1,-6,2,-6,-11,-106,-17,3,1
3417796291,-10,-2,3,0,1,-3,-8,31,1
3417797003,6,9,-1,2,3,-24,14,5,1
3417797003,-3,1,3,-1,-6,-3,8,-7,1
3417819488,-5,-6,-6,0,-2,-33,-21,-3,1
3417819488,18,10,0,-1,2,2,10,19,1
3417820200,0,-15,-3,-1,1,21,-6,3,1
3417820200,4,6,-4,-1,-3,-16,14,14,1
3417841978,-3,-2,1,2,4,31,-2,8,1
3417841978,12,6,-3,5,4,-23,-23,11,1
3417842765,7,-5,0,-2,-5,15,58,20,1
3417842765,-5,7,-1,-2,-2,-23,-42,-25,1
3417856242,7,-10,1,-8,-5,15,-23,-27,1
3417856242,-6,-14,-3,-2,0,-6,-9,13,1
3417857049,16,21,0,5,7,22,18,25,1
3417857049,6,-6,1,-1,7,17,10,3,1
3417879482,8,2,-2,5,8,55,2,9,1
3417879482,4,3,-1,-5,-11,-10,3,-17,1
3417880198,5,-5,-4,2,5,-10,-13,-2,1
3417880198,3,3,2,3,8,37,25,19,1
3417893818,-4,4,-1,3,-1,-31,-21,-12,1
3417893818,17,9,-8,4,7,82,76,12,1
3417894696,-9,-5,3,3,-1,0,-31,-14,1
3417894696,-11,-4,3,-1,-3,-18,-23,1,1
3417916479,-12,0,-1,-1,-1,-9,11,15,1
3417916479,3,2,6,-5,-1,8,-66,-28,1
3417917032,5,-7,-3,0,2,-13,24,-13,1
3417917032,8,10,0,2,-2,64,13,4,1
3417939517,-13,10,2,-4,1,-31,-4,-17,1
3417939517,-28,-20,-2,-7,-15,-57,-1,12,1
3417940258,-6,18,7,-6,-1,-53,2,-3,1
3417940258,-15,-9,0,-10,-18,-50,-49,-22,1
3417953808,0,13,3,-5,-3,63,26,8,1
3417953808,0,-14,-1,-2,-1,-10,-11,-12,1
3417954625,-8,-8,-2,-6,-10,7,-15,-4,1
3417954625,7,-4,-2,3,-2,-27,-3,11,1
3417976323,1,-10,0,-2,5,15,-3,1,1
3417976323,9,-9,-4,5,5,63,15,2,1
3417977125,-8,15,-2,-1,-7,-33,-35,1,1
3417977125,-9,-16,-2,2,11,45,9,0,1
3417999471,-5,-12,-1,-3,-11,-18,-3,-8,1
3417999471,0,7,1,0,2,16,6,3,1
3418001296,5,-7,-2,-1,-1,3,-16,-7,1
3418001296,0,1,-2,0,-4,24,-6,-9,1
3418013860,14,4,1,8,11,56,-8,6,1
3418013860,-17,8,1,-1,3,-31,25,0,1
3418014499,-7,-27,-5,1,2,37,-39,14,1
3418014499,15,29,3,4,6,0,45,4,1
3418036246,-9,-29,1,-2,-11,-6,-3,-11,1
3418036246,6,14,2,3,3,-7,-43,-1,1
3418037062,2,-13,-5,3,7,34,50,28,1
3418037062,-7,-1,3,-2,3,-21,-17,-26,1
3418059437,-2,3,-4,0,2,-8,-9,9,1
3418059437,4,7,-2,2,-1,4,1,0,1
3418060208,-5,-1,-4,-5,-3,-23,-1,-2,1
3418060208,-9,-8,-1,0,-8,-55,-10,0,1
3418073093,21,10,3,0,8,42,38,-1,1
3418073093,-5,-8,-2,-6,-9,-49,-8,9,1
3418081329,5,-3,0,-1,-1,1,8,-17,1
3418081329,3,1,-2,4,7,39,9,16,1
3418096463,-10,4,1,2,0,12,-5,-16,1
3418096463,6,0,4,6,3,-15,13,14,1
3418097036,-4,14,2,-7,-14,-53,5,1,1
3418097036,20,-5,0,8,13,91,21,9,1
3418119508,-19,-16,-2,-9,-7,-43,-35,-18,1
3418119508,-2,0,0,-4,-7,-44,-8,0,1
3418120189,-1,12,9,3,3,34,27,4,1
3418120189,18,1,-4,-3,0,-10,-23,1,1
3418133160,-13,2,-1,-2,0,-38,6,5,1
3418133160,6,-2,1,-5,-8,-20,13,4,1
3418141345,-2,-4,0,3,3,-2,-21,-18,1
3418141345,-6,1,-6,-6,-7,-20,6,9,1
3418156328,0,4,1,2,3,21,18,5,1
3418156328,7,-6,-5,1,3,6,-19,-6,1
3418157373,0,-10,-2,1,2,8,8,9,1
3418157373,-15,-1,-2,-5,1,-33,-29,-8,1
3418179438,8,5,0,-1,-4,-4,13,6,1
3418179438,-2,8,2,4,-3,-13,40,-6,1
3418180385,5,1,-6,3,18,87,-34,13,1
3418180385,-4,-4,1,-5,-9,-31,5,2,1
3418193119,8,-1,0,3,3,-20,-8,-1,1
3418193119,-1,3,0,-1,1,5,-1,-1,1
3418201257,-9,-1,-1,-2,-7,-42,6,1,1
3418201257,-19,4,2,-1,-2,-10,-6,-3,1
3418216238,-11,-3,1,-4,1,-7,-26,-2,1
3418216238,1,3,-5,4,3,36,24,9,1
3418217056,-13,-15,0,-4,-7,-35,-12,-7,1
3418217056,0,-4,2,-2,-2,-4,-3,1,1
3418239486,10,-1,-1,1,-1,-21,7,-5,1
3418239486,-5,2,2,-3,-1,8,-20,-8,1
3418240254,14,4,0,-2,-1,16,20,-2,1
3418240254,10,4,-3,7,10,39,9,2,1
3418253074,8,-25,-3,-1,-4,3,2,22,1
3418253074,-5,20,2,0,3,-17,-2,-5,1
3418261301,7,1,-6,4,0,20,7,4,1
3418261301,3,7,-2,0,-1,-3,9,-1,1
3418276307,-7,-2,4,3,-2,1,0,-10,1
3418276307,1,-14,-1,-2,4,31,12,1,1
3418277052,0,3,5,-3,-5,3,-10,-1,1
3418277052,-4,0,-2,-5,2,-8,-6,-3,1
3418299436,-7,-5,-1,-5,-7,-13,-7,4,1
3418299436,8,6,0,5,5,2,3,0,1
3418300256,-18,-5,0,-5,-2,-12,-43,-19,1
3418300256,20,4,3,1,1,21,67,23,1
3418313140,-12,-6,0,-1,-3,4,-52,-22,1
3418313140,0,-3,0,-3,-1,-24,13,0,1
3418321236,9,6,-3,2,4,19,-8,4,1
3418321236,2,-9,-2,-1,0,15,-5,-2,1
3418336259,5,3,-2,-4,-3,-36,2,3,1
3418336259,-13,-9,0,-6,-5,0,22,5,1
3418337059,2,11,3,-3,-7,-20,-3,0,1
3418337059,-3,-3,-1,3,4,-3,-20,-12,1
3418359469,6,8,-2,1,3,19,17,8,1
3418359469,-8,-6,-2,-2,3,25,-61,-15,1
3418360261,10,6,3,-2,-5,3,22,7,1
3418360261,-12,1,-1,-3,-1,-2,-39,-10,1
3418373076,2,3,-1,1,2,21,54,14,1
3418373076,1,-3,1,3,4,31,9,1,1
3418381308,5,5,-2,5,7,17,13,7,1
3418381308,-11,-1,3,-3,-8,-1,-7,-17,1
3418396239,1,20,3,10,8,-9,36,14,1
3418396239,-7,-10,-1,-4,-7,-18,-4,-16,1
3418397023,0,-6,0,1,0,25,9,2,1
3418397023,-3,0,-1,3,4,10,-21,-5,1
3418419444,13,9,-1,-4,-2,-6,18,3,1
3418419444,-2,-2,0,2,-5,-39,-7,2,1
3418420245,-5,5,4,-2,-2,-1,-16,13,1
3418420245,1,-2,-5,-2,-10,-73,1,8,1
3418442055,-4,-7,-3,1,15,83,13,-3,1
3418442055,9,4,2,2,-3,10,7,8,1
3418442778,-13,-7,1,-9,-12,-73,-64,-23,1
3418442778,20,0,-2,10,11,83,65,42,1
3418456265,-15,3,4,-9,-18,-21,-43,-34,1
3418456265,-3,-7,1,-2,-6,-98,-10,23,1
3418457034,3,-6,0,1,1,16,33,9,1
3418457034,11,-1,-2,8,8,15,71,2,1
3418479509,16,1,-8,13,18,69,11,32,1
3418479509,0,9,-3,-1,-4,9,-48,-23,1
3418480202,-2,-4,-5,-3,1,-50,37,2,1
3418480202,-3,5,4,-7,-11,1,-29,-15,1
3418509463,-25,-31,-2,-12,-17,-62,-37,-14,1
3418509463,23,14,0,8,20,91,9,38,1
3418510269,-4,6,-5,-2,-1,-14,-38,-32,1
3418510269,-14,-11,-4,-7,-2,-55,-43,10,1
3418516549,-7,13,11,-7,-5,-18,-43,-29,1
3418516549,-4,-4,-4,-4,-5,-2,5,2,1
3418517440,21,-2,-7,10,22,17,7,5,1
3418517440,-13,-3,5,-16,-14,-74,-44,-37,1
3418539475,-13,-10,-1,-4,-15,-101,0,-11,1
3418539475,25,16,2,6,9,30,57,2,1
3418540226,-15,-7,-6,9,19,51,-9,22,1
3418540226,-8,-14,2,-5,-6,7,-7,-28,1
3418561985,-6,3,-5,-3,-3,-94,11,8,1
3418561985,-4,0,7,-6,-7,16,21,-23,1
3418562696,10,-1,0,-4,-3,61,13,6,1
3418562696,-5,6,-4,-4,-6,7,-47,-7,1
3418576258,4,0,-5,3,8,54,-20,-16,1
3418576258,-20,-5,-1,-8,-4,-45,0,10,1
3418577234,-9,-5,-1,-4,0,-29,-2,-17,1
3418577234,9,-5,7,1,4,95,23,25,1
3418599456,-3,5,1,-9,-13,-80,-52,-23,1
3418599456,4,4,2,5,9,7,23,-13,1
3418600292,-1,-6,-1,-1,-7,-24,11,-6,1
3418600292,11,0,-8,3,-7,-54,6,8,1
3418621947,-8,13,7,1,-6,-6,23,7,1
3418621947,15,-9,-8,14,19,84,67,28,1
3418622763,-4,-2,4,-3,-11,-19,-9,4,1
3418622763,-7,6,-1,0,-7,-98,-13,-22,1
3418636316,15,-4,-2,3,6,97,36,8,1
3418636316,-2,-10,-4,-5,-7,-34,15,40,1
3418637048,-1,4,1,0,-1,-7,1,-11,1
3418637048,-29,17,3,-4,-7,-45,17,-26,1
3418659443,24,-14,-5,8,16,36,28,44,1
3418659443,-15,3,2,-12,-15,-52,-78,-82,1
3418660237,25,-1,1,11,13,53,92,32,1
3418660237,-1,4,-4,3,7,29,-69,13,1
3418681962,-21,-16,-5,-1,-9,-41,19,-6,1
3418681962,-9,9,3,-9,-20,-105,-19,19,1
3418682751,15,6,9,1,2,-7,27,-1,1
3418682751,-6,-11,-2,1,7,-24,23,-4,1
3418696249,20,9,7,-5,-6,-8,18,38,1
3418696249,-3,-5,-4,4,3,50,-46,-3,1
3418697031,-15,1,-4,-5,-9,-79,3,11,1
3418697031,4,1,1,-3,-5,-30,10,-10,1
3418719414,1,-4,0,-4,1,37,-68,7,1
3418719414,-26,-9,9,-13,-13,-79,-42,-12,1
3418720238,-1,-1,-3,3,-12,-39,6,-4,1
3418720238,14,1,7,3,11,-17,6,21,1
3418742041,-6,4,-4,-2,-4,-59,-14,-19,1
3418742041,9,-6,-7,5,5,16,10,4,1
3418742758,-2,6,1,-9,-12,-58,-24,19,1
3418742758,-23,-10,-1,4,2,58,26,-17,1
3418756235,15,7,3,5,12,44,5,-10,1
3418756235,-8,-1,-5,6,2,-25,50,-11,1
3418757003,-2,0,1,-8,-5,-31,-74,-50,1
3418757003,4,1,-3,-3,1,34,-26,25,1
3418779258,-13,-5,7,-9,-11,-35,23,-33,1
3418779258,0,7,-4,6,9,72,2,-11,1
3418780004,-2,-8,-8,-2,0,9,-28,11,1
3418780004,-4,-2,0,1,4,12,-8,-18,1
3418809420,4,-4,-3,1,8,38,-3,-19,1
3418809420,9,1,0,-7,-12,-19,-27,6,1
3418810204,-4,-1,0,9,10,20,1,7,1
3418810204,11,-3,-1,-4,1,16,20,0,1
3418816400,-5,3,-1,0,-10,26,5,7,1
3418816400,3,-4,2,-1,-1,-96,9,6,1
3418817047,3,-6,-1,-4,3,27,-2,-34,1
3418817047,8,5,0,0,-7,0,16,-7,1
3418839516,5,3,-3,12,10,38,47,28,1
3418839516,1,2,-5,4,13,27,-7,18,1
3418840215,-11,-8,-2,-7,-6,-40,10,15,1
3418840215,-15,2,4,-3,-5,-50,-57,-30,1
3418861922,23,0,-4,-1,-1,-1,-5,36,1
3418861922,-3,2,-1,-4,0,13,-2,-11,1
3418862733,-15,-1,2,-5,-13,-26,-4,-2,1
3418862733,8,-1,-1,-3,-4,-22,3,19,1
3418875548,-14,2,-5,7,13,16,-10,-13,1
3418875548,-5,-4,4,-9,-13,-5,-14,-35,1
3418891240,10,4,-4,4,4,16,29,13,1
3418891240,-7,-2,0,-3,0,-2,-26,-10,1
3418898764,-1,-2,7,3,-1,2,30,20,1
3418898764,2,-1,-3,3,0,-10,10,-8,1
3418899529,4,4,-3,5,6,19,19,-5,1
3418899529,-8,-2,-3,-4,-10,-37,14,26,1
3418921933,-5,-1,-5,-3,2,-74,-10,10,1
3418921933,-1,-6,5,-4,4,84,-51,-56,1
3418922698,8,1,3,2,0,-1,14,36,1
3418922698,1,3,-2,2,-3,0,27,-6,1
3418936297,11,-1,-6,-1,-3,26,-19,6,1
3418936297,-1,-3,1,-1,3,-6,16,14,1
3418937038,-11,-3,1,-1,-2,4,-43,-24,1
3418937038,8,2,-1,3,0,-21,22,43,1
3418958720,8,-5,6,-4,-6,-55,-1,-35,1
3418958720,3,2,2,-1,-3,2,-15,24,1
3418959545,-2,2,-5,9,14,37,51,-4,1
3418959545,-14,-3,2,0,2,28,-75,-41,1
3418981981,-8,1,0,-6,-14,-67,4,23,1
3418981981,-3,7,-4,2,-3,16,10,-14,1
3418982951,27,8,-6,10,14,81,48,40,1
3418982951,19,0,-7,5,11,77,34,9,1
3418996259,-23,11,3,-9,-14,-3,-91,-50,1
3418996259,-4,-30,-3,4,5,31,70,24,1
3418997039,14,9,5,0,2,-41,-42,13,1
3418997039,4,-2,-5,0,-2,-43,28,6,1
3419019664,16,16,0,3,7,80,-35,29,1
3419019664,-9,-17,-1,-11,-13,-49,-8,-70,1
3419019711,-13,-4,1,-8,-12,-31,-17,-6,1
3419019711,24,-1,-3,13,15,58,40,42,1
3419041889,-22,-3,-1,-3,-11,-124,-29,-54,1
3419041889,37,17,2,11,11,86,60,81,1
3419042687,-16,-9,3,-13,-24,-86,41,-5,1
3419042687,-13,-2,11,-8,-8,29,-81,-52,1
3419055703,-8,-8,0,0,-2,1,51,8,1
3419055703,-8,0,-4,1,-4,-98,-16,-10,1
3419063784,7,2,3,-3,-2,48,-53,1,1
3419063784,11,-8,-1,-2,-3,-27,29,25,1
3419078874,-5,-6,-6,1,-3,-32,10,13,1
3419078874,-13,-1,-4,1,5,66,-49,-71,1
3419079602,8,3,-4,1,3,8,-28,52,1
3419079602,-16,-8,0,-10,-9,-24,1,2,1
3419101980,8,8,6,-2,-1,27,59,-23,1
3419101980,11,5,-3,6,6,11,-51,-26,1
3419102773,-12,-7,4,-1,-5,-27,32,-12,1
3419102773,-9,4,-2,-2,-6,-24,-1,-22,1
3419115579,3,-7,3,-11,-2,16,-30,10,1
3419115579,-10,1,2,-7,-14,-49,44,-9,1
3419123899,4,0,-5,1,1,-22,-30,14,1
3419123899,12,5,-2,8,12,45,65,28,1
3419138789,7,0,-3,2,7,-28,-21,23,1
3419138789,-17,-5,-3,0,-2,-4,-15,6,1
3419139547,2,-5,4,-13,-15,-27,-22,-29,1
3419139547,-7,-5,2,2,-1,-8,23,-18,1
3419162126,19,0,-6,7,13,25,32,9,1
3419162126,-4,5,3,-4,-1,-7,-21,-9,1
3419162713,-2,-2,1,2,2,12,33,7,1
3419162713,-2,3,-4,2,6,-26,-25,-20,1
3419175785,-4,-12,3,0,4,46,-23,3,1
3419175785,-3,3,3,-6,-1,-5,-28,27,1
3419183889,-17,-9,2,-1,5,10,35,-23,1
3419183889,10,3,0,-7,-11,-47,-36,6,1
3419198913,-19,-1,1,-3,-9,-30,5,-26,1
3419198913,31,3,-10,13,12,20,32,46,1
3419199591,-4,2,6,-1,-4,-3,-8,-24,1
3419199591,2,-5,-8,7,25,121,23,27,1
3419222076,-17,7,2,-4,2,26,-4,-25,1
3419222076,-4,-3,-1,-5,-7,-22,18,16,1
3419222796,-16,-28,-7,-3,-3,-26,3,2,1
3419222796,27,15,-2,5,6,31,-35,17,1
3419235579,-4,-17,-6,9,7,3,67,18,1
3419235579,5,7,-1,2,0,-8,-37,-4,1
3419243782,5,5,2,1,2,16,-27,-11,1
3419243782,-19,-4,2,-7,-13,-41,-20,-25,1
3419258873,12,7,-3,-1,-3,14,8,34,1
3419258873,-15,-12,3,-5,-12,-97,-41,-7,1
3419259655,27,8,-4,14,25,102,29,-21,1
3419259655,-21,-2,5,-11,-16,-48,21,3,1
3419289423,-4,6,1,-2,-3,-33,-24,-27,1
3419289423,-2,12,2,-5,-15,-26,28,28,1
3419290169,0,2,-4,1,-7,15,-23,49,1
3419290169,-3,3,-1,3,3,-18,-6,-37,1
3419295677,0,4,2,-5,-6,2,-11,13,1
3419295677,-1,-9,-6,3,6,82,-1,4,1
3419303829,-6,26,-1,-3,-5,-23,22,-10,1
3419303829,-8,-22,-1,-3,-2,5,-42,6,1
3419318823,9,-2,-5,4,5,-14,24,12,1
3419318823,5,2,-2,4,7,4,58,14,1
3419319544,-26,-2,3,-7,-9,-16,-39,-42,1
3419319544,14,14,2,-6,-11,-94,15,48,1
3419342108,12,-6,0,5,-2,-2,10,-22,1
3419342108,11,3,-9,10,31,122,16,28,1
3419342865,-10,-4,0,-7,-10,-34,-12,2,1
3419342865,0,1,0,2,3,2,31,-6,1
3419364464,-5,-7,-4,4,-4,51,-12,27,1
3419364464,25,10,-2,9,14,55,-17,20,1
3419365282,22,5,-6,4,-1,-9,48,18,1
3419365282,3,17,0,13,23,127,37,6,1
3419378768,-15,-7,-1,-10,-10,-51,-68,-36,1
3419378768,-17,-2,-1,-2,5,2,7,22,1
3419379565,-8,-5,6,-8,-1,-58,-9,-22,1
3419379565,1,-4,-2,-2,-10,-62,-15,-9,1
3419401937,13,2,0,8,16,42,41,10,1
3419401937,-15,-1,-1,-8,-13,-22,-80,-11,1
3419402679,4,-7,-4,2,6,-23,-7,-14,1
3419402679,-7,2,2,-8,-6,-22,-30,8,1
3419424571,-18,-7,8,-8,-14,20,-25,-33,1
3419424571,-5,-12,2,-1,-11,-64,15,-4,1
3419425306,10,20,2,0,-5,-4,-30,-11,1
3419425306,-5,-41,-7,0,4,10,-1,-1,1
3419438777,-9,17,5,-5,1,8,-6,-2,1
3419438777,-3,4,3,-9,-13,-41,41,-10,1
3419439539,11,-3,-1,7,8,6,1,21,1
3419439539,-15,-3,1,2,3,6,1,0,1
3419462025,19,10,-4,-1,0,14,-19,18,1
3419462025,-20,-20,2,-2,-6,-20,-1,-17,1
3419462794,-13,-7,0,-2,-6,0,-30,-9,1
3419462794,-5,1,3,-7,-11,-53,12,-23,1
3419484552,25,15,-3,11,27,78,-18,40,1
3419484552,25,-1,1,2,5,33,43,33,1
3419485335,-9,-1,-2,1,2,-11,-3,-17,1
3419485335,6,1,0,2,-5,-5,8,15,1
3419498749,-21,5,-2,-6,-7,-56,-5,-13,1
3419498749,-10,-18,5,-14,-16,-72,-81,-36,1
3419499517,-7,0,0,0,3,23,10,15,1
3419499517,13,7,2,1,2,28,15,6,1
3419521961,-14,-9,2,-7,-18,-70,-16,-16,1
3419521961,-6,10,4,3,0,-11,23,-12,1
3419522730,-4,-14,-2,6,10,27,-2,-32,1
3419522730,8,16,1,-7,-15,-73,25,33,1
3419544457,11,-4,1,4,7,33,26,-10,1
3419544457,0,6,0,0,-6,-48,-16,1,1
3419545234,-1,-3,5,-6,-12,-46,9,-5,1
3419545234,0,2,0,7,2,5,30,7,1
3419558757,-7,-2,-1,1,5,50,-15,-24,1
3419558757,23,-4,0,5,3,11,61,13,1
3419559545,-8,8,0,-8,-15,-27,-8,-9,1
3419559545,-11,-27,-3,-2,0,-41,-40,5,1
3419581956,-12,4,7,-9,-9,-31,-11,-3,1
3419581956,-7,9,3,-2,-5,-23,-24,-20,1
3419582739,1,4,-2,0,-1,-8,-16,3,1
3419582739,-1,-21,0,-5,-5,-25,68,1,1
3419604451,7,3,-1,1,1,13,-74,-19,1
3419604451,-9,-4,-2,-4,0,2,38,15,1
3419605205,11,18,-4,7,4,-1,3,19,1
3419605205,5,-6,-3,0,5,31,-30,-4,1
3419619259,-8,-11,-6,0,-5,-48,9,2,1
3419619259,2,-5,-2,-9,-3,-3,-33,-13,1
3419620035,5,0,0,0,3,39,-16,34,1
3419620035,-9,3,3,0,1,34,-37,-56,1
3419641993,8,-14,-5,4,1,-27,29,13,1
3419641993,-13,20,-2,-2,-9,-45,-11,-8,1
3419642683,9,-21,-5,8,12,92,26,1,1
3419642683,-8,1,-8,-1,7,4,-68,-30,1
3419664437,-5,5,8,-7,-15,-68,-2,27,1
3419664437,1,6,1,2,5,4,-8,-2,1
3419665255,-5,-14,-2,-5,-4,-21,8,9,1
3419665255,11,20,-5,8,10,61,4,-3,1
3419678835,-6,2,-4,-2,2,-6,32,2,1
3419678835,3,-30,-3,1,7,-15,-18,7,1
3419679586,-4,13,3,1,1,19,-4,-8,1
3419679586,3,5,-1,-5,-5,-33,15,5,1
3419701916,9,-19,-3,3,4,15,16,4,1
3419701916,-2,11,0,-1,4,45,-9,6,1
3419702723,-4,5,1,-5,-8,-56,3,-10,1
3419702723,-5,2,1,1,6,31,-37,2,1
3419724465,1,3,-3,2,0,10,98,7,1
3419724465,12,5,-4,5,1,69,2,-14,1
3419725224,-5,-2,-6,1,8,34,8,-6,1
3419725224,11,6,1,3,1,-9,7,18,1
3419738785,7,-1,-4,9,11,55,28,-6,1
3419738785,7,9,-4,6,9,6,-26,15,1
3419739576,-12,6,1,-4,-7,-35,-13,-22,1
3419739576,8,-7,0,-2,-6,-11,7,2,1
3419762041,-8,-4,3,1,1,4,-20,-1,1
3419762041,-1,-1,1,-1,-8,-39,46,1,1
3419762809,-7,2,-2,-6,-12,-72,-20,-18,1
3419762809,12,0,9,-5,-8,-4,62,64,1
3419784555,-10,-1,1,-3,-6,-43,-15,-15,1
3419784555,-1,18,6,2,-1,-37,-19,-6,1
3419785434,-9,-36,-8,4,7,62,44,21,1
3419785434,-9,8,5,-2,-3,0,-24,-28,1
3419798764,4,4,-1,-2,-3,-18,-10,5,1
3419798764,-6,-5,3,-6,-7,19,7,-27,1
3419799493,23,2,-2,5,8,23,57,65,1
3419799493,6,8,-7,10,6,29,27,-2,1
3419821958,-3,3,-3,7,15,78,-14,-11,1
3419821958,1,-2,-4,-7,-17,-31,-55,4,1
3419822736,19,-7,5,10,20,97,29,-16,1
3419822736,-22,0,-1,-4,-6,-55,-29,9,1
3419844419,6,9,5,-7,-14,-106,23,-7,1
3419844419,-1,-5,-8,2,1,-6,14,12,1
3419845185,-11,1,4,-12,-8,-65,-77,-25,1
3419845185,3,7,1,-2,-8,4,-1,0,1
3419858793,1,6,-2,3,-3,-15,-11,25,1
3419858793,-14,-17,3,-1,8,9,-42,-34,1
3419859609,3,-7,2,0,-10,-35,12,-6,1
3419859609,-23,-8,-4,-8,-3,4,-33,-36,1
3419881962,5,0,6,-6,-3,45,10,-40,1
3419881962,-4,-3,-1,-4,-1,-6,37,64,1
3419882761,-6,15,0,-4,-2,-27,-67,-23,1
3419882761,-10,-6,10,-3,2,-20,35,-17,1
3419904439,11,-14,-8,6,2,-13,5,-24,1
3419904439,4,-5,-1,-1,3,1,-10,39,1
3419905196,0,18,0,-7,-9,-15,-17,-19,1
3419905196,-16,-3,4,-4,-6,-38,-25,-12,1
3419918117,9,14,-1,2,8,48,-14,34,1
3419918117,2,3,-6,4,3,-20,2,39,1
3419927256,-9,-11,0,1,1,43,18,-39,1
3419927256,15,4,-3,2,2,13,33,17,1
3419941940,-2,-3,-1,1,2,-81,-24,22,1
3419941940,-1,10,6,0,-7,4,50,-12,1
3419943505,5,-4,-8,2,5,37,5,22,1
3419943505,-2,0,-1,-4,-6,-50,30,10,1
3419964459,-23,-12,5,-5,-8,-46,-53,-26,1
3419964459,16,2,2,3,10,44,38,-9,1
3419966050,-14,0,-3,-2,-4,-28,-4,-3,1
3419966050,6,-9,-6,2,3,19,8,-2,1
3419978232,-2,4,7,-1,0,45,-26,7,1
3419978232,1,-4,-2,3,2,17,8,-32,1
3419987171,-20,-3,2,-5,-5,-20,-27,-11,1
3419987171,12,5,-2,1,-3,-6,-13,35,1
3420002161,10,-5,-3,-8,-11,-19,9,58,1
3420002161,-22,-6,5,-3,7,24,25,-58,1
3420003607,13,1,-3,-1,1,-21,-11,-14,1
3420003607,-2,-12,-2,4,2,15,3,22,1
3420024558,-17,-3,0,-4,-2,13,-18,-76,1
3420024558,11,-1,-1,-3,-5,-47,13,65,1
3420026049,-1,7,0,0,0,10,0,23,1
3420026049,-11,7,-6,1,8,-24,-24,-39,1
3420038051,12,-20,-3,0,-6,31,44,23,1
3420038051,0,6,-2,-3,-7,-33,-17,-13,1
3420047181,5,-2,1,4,3,-15,7,-3,1
3420047181,7,12,0,2,1,19,-6,15,1
3420061296,-10,-2,-7,1,1,-33,26,5,1
3420061296,12,10,1,-2,4,31,-27,-50,1
3420068119,-4,-6,-2,-5,-4,-15,13,43,1
3420068119,-6,1,-1,2,2,20,9,-33,1
3420084532,2,1,-2,0,-1,16,27,22,1
3420084532,-8,-6,0,2,0,-26,-7,0,1
3420086079,14,12,1,1,2,25,32,21,1
3420086079,-7,-16,2,-2,-5,-5,-1,-22,1
3420098107,5,10,3,2,6,41,15,4,1
3420098107,3,-4,-2,2,1,32,-5,6,1
3420107027,-9,-5,3,-1,-5,-28,-5,-45,1
3420107027,12,3,-2,4,2,-12,66,51,1
3420121274,-4,4,-5,1,5,13,23,-17,1
3420121274,-5,2,-2,-6,-6,-16,-43,2,1
3420128760,-3,-6,2,-5,-13,-28,-40,-16,1
3420128760,9,-2,4,-1,3,0,12,0,1
3420144463,-17,0,-2,-5,-6,-18,-100,-1,1
3420144463,-2,2,2,-1,-1,-7,33,12,1
3420146080,3,-4,-1,-1,-1,-2,5,12,1
3420146080,-2,-4,-2,0,0,17,-39,-12,1
3420158090,-20,-6,6,-10,-10,-23,-41,-37,1
3420158090,26,6,0,4,0,-4,55,41,1
3420173161,-12,-13,-1,2,6,29,1,-3,1
3420173161,1,6,0,-4,-3,4,-21,2,1
3420181986,7,1,-4,4,14,7,17,5,1
3420181986,-5,-4,-4,0,-2,14,0,-10,1
3420183634,14,4,0,3,3,10,8,11,1
3420183634,-8,4,-4,1,1,6,8,-24,1
3420204421,5,-8,1,0,-2,6,8,49,1
3420204421,1,-1,-8,6,2,-4,19,14,1
3420206071,-1,5,-2,-4,3,1,-34,1,1
3420206071,-3,-4,2,-3,-6,-11,0,-9,1
3420218124,-1,4,1,-3,-4,-2,-74,-9,1
3420218124,-8,-8,0,-3,-5,-33,-26,-15,1
3420227079,3,2,0,2,1,49,19,-41,1
3420227079,5,-1,-3,2,-1,3,-14,21,1
3420241927,4,1,-4,-2,-4,-15,44,11,1
3420241927,-24,-10,0,-4,-2,-20,-52,-45,1
3420243518,-7,-1,-1,-6,-7,-35,24,-20,1
3420243518,2,2,0,-2,-5,-33,-6,43,1
3420264446,4,1,-3,2,0,-3,35,16,1
3420264446,-29,-6,-1,-3,-1,9,-45,-90,1
3420266376,9,4,-1,2,-1,-11,10,33,1
3420266376,-8,-3,-1,-3,-3,43,-5,-22,1
3420278112,1,1,0,5,5,-46,45,3,1
3420278112,23,2,-3,4,11,62,17,80,1
3420287460,-15,-1,3,-2,3,-11,-29,-30,1
3420287460,0,2,1,-1,-2,0,-5,-19,1
3420301275,9,-2,-5,-1,-7,-54,-29,7,1
3420301275,-1,0,3,-1,3,41,-6,1,1
3420308087,-6,-3,1,-6,-16,-60,16,46,1
3420308087,8,1,-1,3,10,-12,-11,-5,1
3420324436,0,2,6,-7,-3,17,8,-32,1
3420324436,2,-6,-6,4,-4,-23,8,3,1
3420326025,-3,6,-3,1,-1,-12,-13,20,1
3420326025,4,-1,1,-4,-3,-76,-13,-14,1
3420346939,8,0,-2,8,4,40,62,41,1
3420346939,-1,1,0,-6,-6,-22,-10,45,1
3420348559,-8,-4,-1,4,4,22,-14,-35,1
3420348559,3,1,0,-2,-2,-2,11,13,1
3420361344,-7,0,-3,4,2,12,1,-25,1
3420361344,4,0,4,-3,-3,2,0,-18,1
3420368134,4,-3,-2,0,1,-6,52,56,1
3420368134,-3,6,-3,0,0,23,-19,-13,1
3420384541,10,-2,1,-1,-2,3,-8,-11,1
3420384541,-4,-1,-1,0,-6,-29,2,-17,1
3420386109,6,-2,-1,-1,6,18,19,28,1
3420386109,-11,-3,4,-10,-6,-37,-31,-65,1
3420407064,-3,-2,3,4,3,37,-26,-14,1
3420407064,-3,2,-1,-3,0,-14,21,-8,1
3420408676,14,2,-5,5,4,18,11,-16,1
3420408676,-1,-3,-3,-4,-4,23,-1,27,1
3420421391,-15,0,1,-3,-2,-22,-19,-56,1
3420421391,8,1,1,4,2,-7,31,24,1
3420430518,2,-1,-3,-1,-2,-5,-22,5,1
3420430518,-11,-4,1,-1,-1,38,-48,-9,1
3420443557,3,0,-3,0,5,-12,7,-7,1
3420443557,-1,4,1,0,0,6,5,2,1
3420452222,-11,-2,2,-4,-3,-41,-2,-12,1
3420452222,8,-1,3,6,3,12,35,7,1
3420466949,0,0,-2,2,3,43,14,16,1
3420466949,-3,-3,-1,-2,1,-17,-8,22,1
3420468530,-1,3,-1,3,0,5,7,-20,1
3420468530,-9,-3,-6,1,6,13,0,-8,1
3420481283,-4,-3,-1,-3,-3,7,-4,-14,1
3420481283,2,2,4,-4,-3,2,5,37,1
3420488088,4,-3,0,4,4,36,12,-7,1
3420488088,0,-3,-3,2,-1,-9,-18,-9,1
3420504427,2,3,3,-2,-4,-27,-13,18,1
3420504427,-2,-4,-2,-3,-7,29,-13,3,1
3420506155,10,2,3,8,15,70,30,-27,1
3420506155,6,1,-1,1,-3,1,1,27,1
3420526966,-2,-3,-3,-3,-2,-11,-2,3,1
3420526966,4,-1,-1,-2,-1,-27,-7,-20,1
3420528566,-9,-1,-3,-3,-5,-26,-19,8,1
3420528566,-2,-3,1,-4,-5,42,59,12,1
3420541326,-18,-4,6,-4,-1,-15,-74,-57,1
3420541326,2,1,-2,4,1,27,24,-5,1
3420548084,-5,-1,-4,-3,-5,-41,-6,9,1
3420548084,6,-3,-2,2,3,33,-9,-20,1
3420564432,-11,2,-3,-2,-5,-14,8,27,1
3420564432,9,4,1,-5,-4,-23,-17,-14,1
3420566051,-4,-2,1,-4,-5,-2,-20,-18,1
3420566051,7,1,0,4,1,-31,4,27,1
3420586947,2,-1,1,0,2,-1,5,6,1
3420586947,2,1,0,5,5,22,3,-6,1
3420588670,6,3,-1,2,-1,12,11,19,1
3420588670,-2,2,1,0,-1,-13,-2,-2,1
3420601319,-1,-3,-3,1,2,3,12,13,1
3420601319,-12,-2,3,-1,-2,-38,1,-18,1
3420608062,3,-3,4,-3,-4,4,-19,0,1
3420608062,-4,0,0,-1,-1,-15,-2,-2,1
3420624529,6,1,-3,1,3,15,9,12,1
3420624529,-2,-3,0,-4,-4,-2,-8,0,1
3420626094,2,1,1,0,2,9,-19,-10,1
3420626094,3,0,-5,2,1,-3,54,11,1
3420646905,-5,-1,-2,-2,-4,-1,0,-25,1
3420646905,-1,2,1,-2,0,0,-12,-11,1
3420648592,-3,-5,3,-2,-2,-7,-1,15,1
3420648592,-7,2,0,-2,0,2,-5,-16,1
3420661330,6,-3,-2,-1,1,-1,6,15,1
3420661330,-2,-3,-1,0,0,3,8,-8,1
3420668130,2,-1,-2,3,-2,-12,2,-1,1
3420668130,12,1,-1,1,0,-13,-8,10,1
3420684485,7,2,0,1,-2,-5,16,20,1
3420684485,-6,-2,-2,-1,3,19,-26,-14,1
3420686049,4,10,-1,2,1,-19,53,10,1
3420686049,-8,-10,-4,0,0,33,-12,15,1
3420706919,4,3,5,-2,-4,18,15,1,1
3420706919,-5,-1,-1,-2,-3,-16,0,-1,1
3420708525,-2,-6,-2,-5,-1,-5,-3,6,1
3420708525,-5,-1,1,-4,-5,-6,-32,-11,1
3420721279,-17,-3,1,2,5,-3,10,-35,1
3420721279,7,-2,0,0,-4,18,2,11,1
3420729294,-6,2,-2,-1,0,6,-21,-17,1
3420729294,2,0,0,-2,-1,-11,8,2,1
3420744698,2,-1,-2,-1,-3,6,-5,11,1
3420744698,1,-2,-2,2,1,-10,0,-4,1
3420745994,-8,-3,-3,0,0,-9,-13,-7,1
3420745994,-1,-3,0,-3,-2,-14,-9,5,1
3420767049,9,-2,-4,0,1,11,24,10,1
3420767049,-5,2,-2,1,2,-1,4,-11,1
3420768603,14,3,-2,-3,-1,16,33,-9,1
3420768603,-3,-1,-3,-1,-1,-3,-1,26,1
3420781369,-5,3,-4,-4,-7,10,-10,-5,1
3420781369,-3,-10,1,1,3,-5,-5,-10,1
3420788134,0,-1,-1,0,-2,-4,-5,2,1
3420788134,1,3,-2,2,2,4,-1,5,1
3420804538,17,4,-2,2,-2,-10,11,2,1
3420804538,-3,1,-1,-1,1,8,-1,2,1
3420806160,-2,-5,2,4,3,8,-9,2,1
3420806160,-1,2,2,0,-1,14,12,-2,1
3420827039,-4,-4,1,1,0,-2,-4,-7,1
3420827039,6,0,-2,1,-4,-7,3,9,1
3420828553,-6,2,-2,-1,4,17,1,5,1
3420828553,1,2,0,0,-2,-20,-7,-18,1
3420840614,0,0,0,1,0,-2,-7,7,1
3420840614,1,-3,-5,1,-2,-12,7,-5,1
3420849615,-5,-4,0,-3,-6,0,-7,-2,1
3420849615,3,1,-1,6,5,16,56,-8,1
3420864506,-3,-3,-2,-1,-1,-2,-5,30,1
3420864506,-8,-1,-1,-2,-1,-2,-11,-22,1
3420866051,0,0,0,-3,-5,-11,-12,13,1
3420866051,-9,-2,1,-1,-2,-8,-7,-26,1
3420887037,1,0,-1,3,2,-5,-5,-1,1
3420887037,2,6,5,2,2,-9,3,9,1
3420888630,-1,-4,-1,2,0,1,-5,-3,1
3420888630,-6,4,1,-7,-3,-9,-24,-2,1
3420900708,5,0,1,0,-1,-2,0,1,1
3420900708,-1,3,0,-3,-2,7,-8,-3,1
3420909697,2,-6,-2,1,1,-15,-19,0,1
3420909697,5,1,1,6,4,21,-2,0,1
3420924508,0,1,-4,0,4,21,30,16,1
3420924508,-3,-2,0,-1,-3,-10,2,-12,1
3420926089,0,2,3,-1,-3,2,4,4,1
3420926089,1,-3,2,-3,-5,-35,-18,-8,1
3420946933,-2,-2,-4,8,13,71,-1,-37,1
3420946933,10,-1,1,-4,-3,0,-16,31,1
3420948555,-10,-2,5,-5,-3,-22,-10,-2,1
3420948555,-4,-2,-1,3,2,8,1,3,1
3420960727,-3,-2,-1,-3,-7,-40,0,5,1
3420960727,-4,1,-1,-2,-1,7,1,-15,1
3420969701,4,-1,1,-2,-1,-14,-6,2,1
3420969701,2,-3,0,3,-1,19,-21,-1,1
3420984516,-4,1,1,-1,-1,-17,9,-2,1
3420984516,-1,-2,-2,1,0,16,12,2,1
3420986115,-1,-3,0,-2,-2,-5,2,3,1
3420986115,3,3,0,-5,-3,-13,-24,2,1
3421007005,-4,-3,2,-3,-3,-7,1,-6,1
3421007005,-3,-2,-1,-2,-2,-15,-5,4,1
3421008587,-2,0,-1,0,1,30,9,-6,1
3421008587,-2,-2,-3,-1,0,3,2,-4,1
3421020674,2,1,-2,-3,-4,-7,-20,4,1
3421020674,-1,6,0,0,0,-12,0,-3,1
3421029534,-6,-9,0,-3,-8,-43,-10,-4,1
3421029534,6,-4,-8,14,18,88,24,-6,1
3421044420,11,-1,3,-8,-10,-25,-11,55,1
3421044420,-6,-2,0,-1,0,-4,2,-18,1
3421046008,4,3,0,-2,-2,7,-2,7,1
3421046008,-4,-1,0,-2,-4,-22,-4,-11,1
3421067002,-5,-2,-3,3,1,-4,3,-11,1
3421067002,-2,1,-2,-1,-2,13,1,-5,1
3421068577,6,2,-1,2,1,3,-7,7,1
3421068577,-3,-2,0,-6,-8,-30,16,2,1
3421080746,-1,-1,-2,0,0,22,-19,-10,1
3421080746,7,-4,-1,0,-4,-28,27,1,1
3421089618,-1,2,-6,5,7,5,43,-18,1
3421089618,5,10,0,-2,0,10,16,36,1
3421104460,-6,-14,-2,-2,-2,1,-16,-15,1
3421104460,0,4,0,1,0,-5,-11,5,1
3421106071,-19,-4,0,-1,-2,3,-5,-16,1
3421106071,8,2,-1,-1,-2,-8,5,3,1
3421126980,-6,4,-5,0,-3,-11,-11,-8,1
3421126980,1,-2,-2,0,1,8,-1,-6,1
3421128627,6,-3,-2,-1,2,12,-5,-1,1
3421128627,-3,-2,1,-4,-4,-17,-6,-8,1
3421140642,1,1,2,1,0,10,1,1,1
3421140642,-2,-1,-2,0,2,-12,-4,8,1
3421149639,4,3,0,3,2,27,-5,-8,1
3421149639,-2,-3,-2,-3,1,6,55,31,1
3421164430,5,6,1,1,9,24,-3,-48,1
3421164430,6,0,0,0,-1,-13,31,41,1
3421166062,4,3,2,-1,1,25,-8,6,1
3421166062,-8,-6,-1,-3,-4,-20,-18,-29,1
3421186899,6,1,-1,1,0,-15,11,35,1
3421186899,-1,-4,-4,-1,-1,9,-3,-20,1
3421188627,0,1,-1,-3,-3,-8,2,3,1
3421188627,-3,-1,0,-2,-3,-13,-21,-8,1
3421200630,-6,1,1,-1,-5,-35,-15,-21,1
3421200630,-6,-5,0,-3,-1,18,-39,-22,1
3421209628,24,-4,2,-2,-5,-16,31,50,1
3421209628,-8,3,0,0,2,20,-6,-7,1
3421224528,-5,-7,-4,-2,-5,0,-11,-7,1
3421224528,-4,-5,2,-2,-3,-6,-6,-15,1
3421226071,2,0,1,1,1,-8,-14,17,1
3421226071,5,5,0,2,1,0,21,-10,1
3421246929,2,4,1,-5,-3,-7,-17,0,1
3421246929,-3,-8,0,2,2,-5,7,10,1
3421248564,-3,5,-1,-1,-2,6,11,-6,1
3421248564,1,-5,-1,-2,-3,-16,-31,0,1
3421269573,-2,-1,2,-1,1,-4,9,5,1
3421269573,0,2,-1,-3,-3,-32,-13,-2,1
3421271080,-6,-4,-3,-2,-6,-14,27,1,1
3421271080,8,0,4,5,9,45,17,-34,1
3421284496,3,-1,-3,3,0,7,25,31,1
3421284496,-6,1,0,-5,-1,1,0,1,1
3421286088,-14,-2,-2,-4,-8,-28,-27,-20,1
3421286088,1,0,-2,-5,-6,-21,-20,9,1
3421307049,23,0,-5,9,8,4,38,22,1
3421307049,-5,1,3,2,1,26,6,1,1
3421308534,-1,0,0,-1,-2,4,-17,8,1
3421308534,-4,-2,-3,-2,-1,-4,0,5,1
3421329490,-2,-3,0,-2,1,4,-19,-9,1
3421329490,1,5,-2,-1,-4,-13,-15,7,1
3421331077,-2,-1,1,1,1,6,7,-26,1
3421331077,0,0,-1,-1,7,5,43,-5,1
3421344495,-2,-2,4,-3,-6,11,-11,22,1
3421344495,-1,2,0,-1,-1,1,-4,-21,1
3421346062,-9,-1,1,2,5,7,-11,-11,1
3421346062,-2,-2,-3,-2,-5,-17,-12,-5,1
3421366964,-3,0,-6,0,2,-5,0,-7,1
3421366964,-2,-4,2,-1,-1,16,5,3,1
3421368555,4,-2,-2,0,2,24,-7,4,1
3421368555,-1,0,-1,2,1,-6,-4,14,1
3421389534,-8,0,-2,-1,-4,-11,-4,-18,1
3421389534,14,1,-3,2,3,13,-8,24,1
3421391058,7,3,-5,0,1,14,-11,-5,1
3421391058,0,-3,0,2,-1,7,-16,10,1
3421403796,-6,0,2,-4,-3,-11,31,-12,1
3421403796,4,-2,0,3,0,-7,3,1,1
3421410626,-2,-1,-1,1,0,28,14,-34,1
3421410626,3,-1,2,-5,-1,-9,-46,29,1
3421426995,7,1,-3,2,-1,-9,9,2,1
3421426995,0,4,0,1,0,6,-1,12,1
3421428558,-15,-4,3,-3,0,-8,-9,-24,1
3421428558,0,-1,0,4,-3,-9,22,15,1
3421449540,-13,0,2,-4,-1,-6,-17,-16,1
3421449540,-1,-2,0,-4,-1,-9,11,-6,1
3421451069,-1,-3,1,-6,-12,-37,-38,8,1
3421451069,-8,-4,-2,-2,4,11,45,-18,1
3421463841,-2,-4,3,-5,-4,-5,-25,-16,1
3421463841,-3,-2,-4,0,1,3,4,-12,1
3421470646,2,-1,-1,1,2,-10,-5,46,1
3421470646,-8,-1,0,-5,-9,-33,-25,-20,1
3421487044,-4,-1,-2,3,5,38,17,-5,1
3421487044,7,0,2,3,2,10,22,-10,1
3421488608,1,3,-3,2,0,9,8,-5,1
3421488608,1,-2,-3,0,-1,-2,-4,4,1
3421509472,2,0,-3,1,0,-1,0,-4,1
3421509472,2,-1,0,-3,-2,-10,-32,9,1
3421511083,0,1,-1,0,3,-12,19,-1,1
3421511083,10,0,-3,2,-2,29,6,6,1
3421523812,2,0,-7,0,1,7,6,-11,1
3421523812,-18,-1,-1,-1,-3,1,-10,-14,1
3421530696,4,1,-1,-3,-1,-10,0,1,1
3421530696,-4,-3,-2,-1,0,-3,-4,14,1
3421546995,-7,0,2,-5,-6,-29,-3,14,1
3421546995,4,0,-6,4,4,15,14,16,1
3421548550,2,-2,1,-2,1,7,-3,-1,1
3421548550,-7,-2,0,-3,-2,-2,-22,-30,1
3421569415,0,-1,-2,-3,1,-7,-2,7,1
3421569415,-1,-1,2,0,-4,-16,8,-5,1
3421571014,0,-1,-2,0,1,14,-9,8,1
3421571014,12,3,0,5,5,24,21,-3,1
3421583834,-3,-3,3,-5,-3,-14,-10,0,1
3421583834,5,-1,-3,0,0,3,2,4,1
3421590572,-4,1,-3,-5,-3,-8,-9,-11,1
3421590572,-2,0,-1,1,-1,-5,-3,1,1
3421607047,1,-1,-1,1,2,10,-6,-33,1
3421607047,15,0,0,1,-1,-4,3,65,1
3421608535,-5,0,0,-1,-1,-3,10,-17,1
3421608535,-11,-2,0,-2,0,-3,-6,0,1
3421629518,13,-2,-1,-1,3,11,-1,0,1
3421629518,-6,-1,-3,3,1,3,-1,-18,1
3421631131,4,1,1,0,0,-2,10,23,1
3421631131,-5,0,-2,-6,-4,-11,-5,-7,1
3421643914,-8,0,-3,-2,-3,-24,-6,6,1
3421643914,-7,-2,2,-4,-3,2,-7,-32,1
3421650692,8,1,-2,3,5,-6,4,2,1
3421650692,-1,-1,2,-2,-2,36,-12,1,1
3421666993,-2,0,1,2,-2,-6,-5,2,1
3421666993,0,-1,-1,-1,1,3,18,2,1
3421668537,-6,-2,0,-2,-4,-5,-7,-32,1
3421668537,1,-1,0,1,-3,-24,-14,26,1
3421689523,-1,0,2,2,3,26,21,-3,1
3421689523,-13,-1,0,-4,-7,-7,-27,-11,1
3421691104,6,1,-3,2,3,10,5,8,1
3421691104,-4,-2,-4,2,0,-6,5,-10,1
3421703794,1,0,1,1,-1,6,3,41,1
3421703794,-3,1,2,-4,-2,-14,-3,-18,1
3421710623,1,-3,-4,-4,-3,1,-11,9,1
3421710623,3,2,5,-5,-6,-30,-17,-9,1
3421727361,-5,-1,1,-1,2,7,3,0,1
3421727361,3,0,-2,2,3,28,5,2,1
3421728533,0,0,3,-1,-2,1,-2,3,1
3421728533,-5,1,1,-4,-5,-25,-9,-4,1
3421749700,4,-1,-4,3,-1,24,-16,35,1
3421749700,0,-1,1,-8,-4,-20,-19,1,1
3421751162,2,2,4,3,-1,0,12,11,1
3421751162,0,0,-1,2,0,8,9,6,1
3421763114,-3,1,-2,-4,-4,-25,-29,-23,1
3421763114,-3,-2,2,2,0,6,6,-8,1
3421772147,10,-1,-1,3,3,-1,24,16,1
3421772147,-3,-1,-2,-1,-2,4,17,-9,1
3421786959,-1,-2,2,-3,-5,-21,-10,-8,1
3421786959,2,0,-2,6,3,20,11,3,1
3421788542,-4,1,0,-1,-1,-2,11,-6,1
3421788542,3,2,-1,1,4,20,-14,-6,1
3421809417,4,0,-1,1,0,-8,17,-4,1
3421809417,-4,0,-1,0,-2,-8,-5,6,1
3421810999,-2,-1,2,-2,-2,-7,-8,-42,1
3421810999,11,1,-4,6,3,16,5,43,1
3421823050,-4,-1,-3,1,-4,-9,-7,-7,1
3421823050,0,-2,3,-2,2,32,10,4,1
3421839613,-1,0,-2,4,-1,-3,0,-4,1
3421839613,2,-1,3,-3,-2,-10,-5,-5,1
3421846980,-1,-3,0,-2,-4,-13,2,0,1
3421846980,-3,-2,-4,1,3,-11,2,2,1
3421848545,0,-1,-1,-1,-1,-7,-6,8,1
3421848545,-4,1,-2,-2,-2,12,3,-5,1
3421869442,1,0,-1,2,3,9,-4,9,1
3421869442,1,0,2,0,1,-3,5,-14,1
3421871175,-4,0,2,-2,-2,-2,-9,12,1
3421871175,-13,-3,-2,-1,3,-10,-2,-41,1
3421883110,6,0,0,0,0,1,0,15,1
3421883110,2,0,0,-1,-5,-17,-14,-6,1
3421892228,0,0,-3,-2,3,18,34,3,1
3421892228,4,2,-3,0,1,5,0,26,1
3421907248,-10,3,3,-2,1,8,-7,-30,1
3421907248,0,-3,0,-1,0,-12,25,3,1
3421908639,2,-1,1,3,2,6,5,7,1
3421908639,-3,-1,1,4,1,-9,4,-10,1
3421929535,-11,-2,-1,-3,-1,2,-8,7,1
3421929535,8,2,-1,-1,-2,-5,-16,2,1
3421931039,-11,-4,1,-5,-7,-18,-23,-26,1
3421931039,11,-1,-3,1,3,25,3,9,1
3421943150,-5,0,3,-1,-1,-6,-6,-5,1
3421943150,-4,-2,-1,-2,-2,-2,-2,-6,1
3421952075,0,-1,-1,-2,-1,2,5,5,1
3421952075,0,-3,2,-3,-5,-14,-6,-18,1
3421974547,13,-3,-1,5,4,5,18,41,1
3421974547,-2,0,-4,-1,0,3,-2,-7,1
3421976081,-1,1,-1,0,-2,2,-4,6,1
3421976081,0,-1,-3,2,0,-4,0,12,1
3421989570,0,2,1,-3,0,0,-1,-13,1
3421989570,-3,0,0,1,-3,-6,-3,2,1
3421991115,-2,-2,0,0,1,3,3,10,1
3421991115,-4,-1,0,-2,-2,-8,-19,-9,1
3422003072,-6,-1,-2,-1,-2,-1,2,-44,1
3422003072,6,1,3,-4,-1,-1,5,55,1
3422012092,3,0,-1,0,2,6,-7,-17,1
3422012092,-1,-1,0,1,0,-2,9,37,1
3422026943,-12,-2,3,-7,-4,-3,-12,-63,1
3422026943,6,3,-5,5,4,0,22,41,1
3422028576,-5,-1,1,-2,-2,-1,-15,4,1
3422028576,1,-1,4,-2,0,-4,-14,-7,1
3422049435,12,-1,-5,4,3,5,36,22,1
3422049435,-4,0,-1,-5,-3,-3,-14,-66,1
3422051263,8,2,-1,1,2,-3,2,73,1
3422051263,-3,0,-1,0,1,-5,13,-30,1
3422063061,-2,1,-2,1,0,7,-33,27,1
3422063061,-14,-5,4,-6,-6,-3,-7,-46,1
3422072149,0,-1,-3,1,0,0,3,-12,1
3422072149,1,-1,-2,1,-2,-3,7,3,1
3422087117,3,0,0,2,1,-1,3,-6,1
3422087117,-1,-2,0,0,1,4,1,9,1
3422088619,-6,3,2,-1,-4,-5,-12,-18,1
3422088619,9,0,-2,0,-2,-4,-3,-6,1
3422117427,-2,-2,1,-1,1,-2,-1,3,1
3422117427,-3,-2,0,-1,-1,3,28,11,1
3422118518,-7,-4,0,-2,-5,2,1,-17,1
3422118518,-4,1,1,1,-1,3,4,5,1
3422140970,-7,-1,1,-2,-2,-3,13,14,1
3422140970,4,0,-2,2,3,1,-7,21,1
3422142527,-6,-1,-2,-6,-2,0,-14,0,1
3422142527,0,-2,0,-1,2,7,20,3,1
3422146973,-10,2,-1,1,0,-4,-9,-7,1
3422146973,3,-2,-3,1,1,-1,-2,-7,1
3422148616,0,0,2,0,0,-3,-5,-10,1
3422148616,2,0,-3,1,-1,0,1,23,1
3422169442,-7,-3,1,-4,-2,-2,-10,-24,1
3422169442,7,1,-3,5,4,3,24,-5,1
3422171443,-10,-3,-2,-5,-2,-5,-22,5,1
3422171443,3,-3,1,-1,2,13,29,-13,1
3422183097,7,1,-3,0,0,-4,-5,16,1
3422183097,-4,2,1,1,-2,-1,-11,-19,1
3422192068,1,-2,-2,4,1,0,7,26,1
3422192068,-6,-1,1,-4,-2,-8,-6,-11,1
3422206975,0,-1,-3,-1,-3,4,-9,-10,1
3422206975,6,1,-3,4,0,0,-2,20,1
3422208574,9,3,-4,3,3,1,21,18,1
3422208574,-7,-2,6,-6,-7,-3,-39,-48,1
3422229424,2,-2,1,2,1,0,7,22,1
3422229424,-2,-1,0,-3,-2,-7,-14,-7,1
3422231101,3,-1,0,0,0,-4,0,2,1
3422231101,-2,-4,-5,0,3,-5,-35,17,1
3422251999,7,1,-2,0,3,2,30,-6,1
3422251999,-4,-2,-3,-3,-2,-1,-15,-2,1
3422253517,-7,-1,-1,-1,0,0,1,4,1
3422253517,-3,3,0,-3,-3,-4,-2,1,1
3422267803,2,-2,-4,-3,-1,-4,-4,-15,1
3422267803,2,1,-1,-1,0,-2,-7,22,1
3422269403,-4,-2,6,0,-1,4,8,-22,1
3422269403,1,1,0,0,0,-3,8,-10,1
3422289449,-3,1,0,-5,-3,-5,-12,0,1
3422289449,-9,-2,-1,0,3,5,26,1,1
3422291026,6,-1,-1,-1,-1,-1,-11,9,1
3422291026,0,0,2,1,0,-2,5,-4,1
3422312050,-6,-2,1,-1,-4,0,0,7,1
3422312050,-2,-1,3,-1,-3,0,2,-1,1
3422313599,3,1,-1,1,3,-3,-14,-10,1
3422313599,-3,1,-5,3,2,4,20,8,1
3422326388,5,-1,0,2,-1,2,8,0,1
3422326388,-1,-2,1,-5,-2,-1,-5,-14,1
3422333072,-10,-1,-1,-2,-3,-1,1,-19,1
3422333072,-2,0,0,-2,-4,-4,-3,6,1
3422349489,-5,0,0,3,1,-1,-13,3,1
3422349489,5,1,0,-1,-3,1,-10,2,1
3422351091,-2,-1,1,0,1,1,9,-12,1
3422351091,-5,-2,-2,-1,0,-1,-8,-14,1
3422372009,1,-2,1,-4,-5,-2,-17,32,1
3422372009,-5,-2,1,-4,-1,-3,-8,-11,1
3422373654,8,1,-2,4,1,-3,-11,21,1
3422373654,-8,1,-2,-1,0,-1,5,-5,1
3422386079,-2,-2,0,0,1,2,19,-43,1
3422386079,1,1,1,-1,0,-1,-17,-1,1
3422394695,1,-1,0,-2,-2,6,-9,-3,1
3422394695,8,1,1,-3,-2,-1,0,5,1
3422409580,1,0,-3,0,-1,-5,7,7,1
3422409580,2,0,-4,0,0,-4,2,17,1
3422411109,-2,1,6,-4,-3,6,-16,-48,1
3422411109,0,-1,-4,5,3,1,-2,47,1
3422431942,2,0,0,-4,-3,0,4,1,1
3422431942,-4,-3,-2,1,0,2,0,-15,1
3422433579,7,1,-4,0,1,-3,-3,26,1
3422433579,-1,-3,0,-1,0,-2,-2,-16,1
3422446242,2,0,-2,1,0,2,-4,4,1
3422446242,1,-1,-1,0,1,-1,5,20,1
3422453121,-5,0,-4,-1,-4,2,17,-16,1
3422453121,9,2,-2,1,1,-3,-1,-4,1
3422469702,-9,-2,0,-1,-2,1,0,14,1
3422469702,9,1,0,0,1,2,-20,-14,1
3422470994,2,-1,-1,1,-2,-4,40,7,1
3422470994,-6,-3,-2,1,0,-1,-11,-29,1
3422492022,13,1,-2,1,-1,3,4,55,1
3422492022,-10,-5,0,-3,0,-5,1,-12,1
3422493630,0,-2,0,-2,1,-1,-9,-8,1
3422493630,-7,-2,0,-3,-4,-2,-2,5,1
3422506328,0,-1,4,-1,0,-2,6,-42,1
3422506328,4,1,0,0,-1,-4,3,17,1
3422513157,-2,-2,-5,4,1,5,25,10,1
3422513157,-3,1,0,2,1,10,-28,-13,1
3422529433,-5,-1,1,-3,-3,-1,-18,-1,1
3422529433,-1,0,1,2,0,-3,0,-4,1
3422531022,-2,-1,-4,-1,0,1,14,1,1
3422531022,-1,-3,2,-2,-2,-5,1,5,1
3422559516,0,-2,-4,1,2,2,11,21,1
3422559516,-14,0,3,-3,-2,-2,-7,-19,1
3422561124,-8,-1,0,-2,0,-5,-13,12,1
3422561124,8,1,0,2,-2,0,11,-1,1
3422566312,-3,2,2,0,-1,-1,-11,-26,1
3422566312,-4,-3,-2,0,-1,0,12,15,1
3422573151,6,2,1,-3,-2,-1,4,-4,1
3422573151,1,-1,-1,-2,0,-3,4,10,1
3422589475,-3,-3,-4,0,2,-1,4,-4,1
3422589475,10,1,-5,2,0,5,9,14,1
3422591116,3,-1,1,0,-3,-5,-7,17,1
3422591116,3,2,0,0,1,-5,-13,-6,1
3422612019,5,-1,-6,10,7,12,58,22,1
3422612019,-3,-2,2,-4,-5,-3,-20,-6,1
3422613619,-3,0,0,1,0,-3,-16,-8,1
3422613619,2,-1,-1,-1,-2,-1,17,3,1
3422626320,-2,-1,-1,-3,1,-6,-14,-11,1
3422626320,0,0,-3,1,1,-2,-11,6,1
3422640571,0,-2,0,-4,-2,3,10,-3,1
3422640571,-1,-1,0,-1,-2,-4,-12,13,1
3422649533,-1,1,-2,-4,-6,-3,-8,-5,1
3422649533,1,1,3,-1,-2,-1,-1,0,1
3422651079,-10,-1,0,-2,-2,1,-3,-27,1
3422651079,-3,1,0,0,1,0,-1,8,1
3422671911,3,-1,3,-6,-1,-10,-36,-47,1
3422671911,-2,1,1,-1,-1,-3,25,10,1
3422673495,2,0,0,0,-3,-2,4,4,1
3422673495,-2,0,-3,1,0,-1,1,6,1
3422685602,-2,-2,-2,2,1,8,10,-17,1
3422685602,0,-1,-1,5,3,-2,17,23,1
3422694595,2,1,0,-4,-2,-3,-10,6,1
3422694595,2,-1,1,-3,-3,2,6,-4,1
3422709490,10,1,-1,1,-2,-5,-6,34,1
3422709490,-4,-2,0,0,1,2,-3,-12,1
3422711097,-3,0,-1,2,3,3,5,-12,1
3422711097,7,-3,-4,-2,1,2,16,21,1
3422733925,-3,-1,-1,-1,-1,-1,-5,-14,1
3422733925,6,1,0,0,-2,-1,-21,16,1
3422734427,-2,-2,-2,0,0,7,38,25,1
3422734427,-2,2,0,-1,0,-1,-18,-37,1
3422754457,0,-1,0,0,0,-2,1,7,1
3422754457,-1,-2,-3,-2,-3,1,0,-17,1
3422756075,-1,0,0,0,1,-4,-23,3,1
3422756075,2,-3,-1,0,1,3,11,9,1
3422769609,2,0,-3,-2,-1,0,-2,11,1
3422769609,-15,-3,0,-2,-1,-9,-3,-33,1
3422771179,17,-1,0,-1,-3,2,-9,16,1
3422771179,4,0,-1,5,6,7,39,7,1
3422791993,-9,-1,0,-1,-2,-1,-3,5,1
3422791993,4,0,1,-3,-2,0,-1,-9,1
3422793618,-1,0,-3,-4,-1,-2,-7,-9,1
3422793618,-5,-2,3,-4,-3,-8,-33,-10,1
3422805690,9,0,-4,5,4,7,30,20,1
3422805690,1,0,-2,3,1,4,24,5,1
3422814568,-10,0,0,-3,-5,-8,1,-20,1
3422814568,2,0,-1,0,0,3,-4,12,1
3422829564,-8,-1,-1,1,-1,-1,-15,-22,1
3422829564,1,-1,4,-6,-3,-3,-8,22,1
3422831222,6,0,0,-1,2,-2,-2,13,1
3422831222,-3,-2,-1,-2,-3,-5,8,-9,1
3422852141,5,2,1,1,2,-3,4,-36,1
3422852141,-7,-1,0,2,0,4,-16,-9,1
3422853573,-4,-1,1,1,1,-4,-7,9,1
3422853573,-2,-3,-4,-3,-1,3,18,2,1
3422866025,-2,0,-2,-3,0,2,-7,11,1
3422866025,-1,1,0,3,3,3,-3,-5,1
3422874572,3,0,2,0,2,0,2,-4,1
3422874572,-7,0,-3,-1,-3,-2,-9,-4,1
3422889466,-4,0,2,-4,-3,1,-9,7,1
3422889466,5,2,-1,-1,-4,-5,3,-3,1
3422891004,-5,-2,-2,2,-3,2,-13,3,1
3422891004,-4,0,4,-2,-2,-3,3,0,1
3422912036,-2,-2,1,-2,-2,-5,-8,2,1
3422912036,-3,-1,0,-2,0,-4,3,-11,1
3422913607,-10,0,4,0,1,-4,-11,2,1
3422913607,8,0,4,-3,-3,1,0,4,1
3422925605,-3,0,0,0,-1,2,-8,3,1
3422925605,-8,-1,0,1,3,1,-15,-12,1
3422934584,4,3,-1,1,-1,2,38,-22,1
3422934584,2,-1,3,-1,2,0,-22,10,1
3422949500,-4,1,0,0,1,1,25,5,1
3422949500,-1,0,-2,2,0,3,19,6,1
3422951112,7,-4,-4,-1,2,2,-33,-5,1
3422951112,-18,0,0,0,-1,4,-17,-7,1
3422972002,-6,-6,1,-5,-3,-1,-12,-2,1
3422972002,7,-1,-1,-2,-2,-4,6,-12,1
3422973573,5,0,-3,0,0,-2,9,5,1
3422973573,0,0,-4,-1,0,-3,-10,-15,1
3422985610,-10,0,-3,0,-1,0,29,-17,1
3422985610,10,0,0,-1,-3,-1,-22,1,1
3422994645,-8,-4,1,-5,-4,-3,-5,-9,1
3422994645,4,-1,0,0,-1,-3,-16,8,1
3423009522,0,1,-2,0,-2,-2,-10,9,1
3423009522,-3,-1,1,-2,-1,2,-2,-33,1
3423011034,4,1,-1,1,-2,-1,15,23,1
3423011034,-10,-1,1,1,1,-3,-15,-16,1
3423031937,10,-1,-3,1,0,6,2,3,1
3423031937,2,0,-1,0,-2,1,18,6,1
3423033484,1,-2,0,0,4,-1,-25,0,1
3423033484,3,0,-2,1,0,5,27,13,1
3423045541,-2,-2,0,0,-2,-8,-24,-3,1
3423045541,0,1,-3,-3,0,5,25,1,1
3423054639,-2,-2,-1,0,-1,-1,-17,11,1
3423054639,-9,-1,-1,-2,-4,-6,-2,-14,1
3423069506,10,1,-1,1,0,-4,-6,-14,1
3423069506,-6,-1,-4,0,0,-3,5,45,1
3423071090,-7,1,3,-3,-4,-6,-32,-47,1
3423071090,-4,-1,2,-2,-1,-2,9,-18,1
3423091960,4,-1,-3,4,2,7,17,39,1
3423091960,0,-2,-1,-1,-3,0,-13,-9,1
3423093544,1,1,-2,2,1,7,11,18,1
3423093544,7,-1,-5,1,-1,0,-3,5,1
3423105695,0,-1,1,-2,-2,-7,-13,-16,1
3423105695,3,1,0,0,3,4,26,10,1
3423114619,-2,1,-2,3,3,5,24,18,1
3423114619,4,2,-1,-1,-1,-1,2,9,1
3423129434,7,-1,-1,-2,0,1,2,7,1
3423129434,-9,-1,-1,1,0,-6,-2,-7,1
3423130989,10,-1,2,0,1,2,1,29,1
3423130989,-4,0,0,0,-1,0,7,-19,1
3423151973,3,0,2,-3,-1,-3,-6,9,1
3423151973,-5,-1,0,0,1,0,-12,-32,1
3423153587,-2,-2,0,0,1,1,11,2,1
3423153587,-4,-2,0,0,-1,5,0,13,1
3423174551,4,2,1,-1,2,-6,-14,-10,1
3423174551,2,-3,-1,-3,-4,-3,-5,-1,1
3423176061,-4,-2,1,2,-1,-6,-12,-20,1
3423176061,9,-2,-3,3,1,6,26,51,1
3423189472,-5,-2,1,-4,-4,-5,-11,-46,1
3423189472,9,3,-1,3,1,1,-10,14,1
3423191036,-7,0,0,-5,-3,-3,-12,-62,1
3423191036,9,-1,2,-5,-2,-8,-3,40,1
3423212006,-2,0,0,-2,-1,1,6,20,1
3423212006,-4,-2,2,-2,-1,-8,-11,-6,1
3423213597,7,3,-3,3,5,31,25,-2,1
3423213597,4,2,-1,-1,1,1,-10,-10,1
3423234507,-6,-1,-4,1,0,-3,-8,0,1
3423234507,2,0,4,-3,-1,1,-6,17,1
3423236073,-17,-4,-2,-6,-6,-19,-26,-12,1
3423236073,3,-1,-1,2,2,12,22,-15,1
3423248830,-22,-4,4,-5,-2,-6,-7,-13,1
3423248830,-1,2,-2,0,-1,-1,-11,-4,1
3423255558,-4,-3,3,-3,0,-4,16,11,1
3423255558,-14,-3,-2,-1,2,-9,-34,-52,1
3423271995,5,-2,3,0,-3,13,18,18,1
3423271995,-8,0,-4,0,0,8,10,-3,1
3423273545,1,1,-1,-3,-2,17,15,9,1
3423273545,-4,-1,-3,-3,-3,-4,4,-13,1
3423294435,5,1,1,5,4,-1,-1,1,1
3423294435,-5,-3,2,-2,-2,-6,-34,3,1
3423296075,4,1,1,-3,-4,-10,2,3,1
3423296075,-3,3,1,2,3,8,1,8,1
3423308756,4,-1,-1,-3,-1,23,6,-1,1
3423308756,9,4,-4,0,0,2,7,5,1
3423315643,-5,-2,-2,1,1,-5,-2,-5,1
3423315643,2,1,3,-2,-5,-16,-13,1,1
3423331964,-6,-11,-2,1,1,-7,18,-2,1
3423331964,-9,14,4,-4,-5,-11,-6,-19,1
3423333557,0,-10,0,-3,-2,4,-3,-1,1
3423333557,3,2,1,0,-2,15,-10,0,1
3423354534,-6,-2,-3,-1,1,-5,10,0,1
3423354534,3,-4,-2,-1,-2,0,-22,8,1
3423356073,-4,-1,-2,-2,-4,-13,3,-5,1
3423356073,4,3,-4,0,4,15,5,4,1
3423369023,8,1,-3,0,-1,-11,-17,2,1
3423369023,-4,-5,2,-3,-2,0,0,1,1
3423375644,1,4,-1,1,-1,-3,-13,6,1
3423375644,5,-1,-2,0,0,-1,22,4,1
3423392105,-3,1,-3,-1,-1,-9,-1,1,1
3423392105,0,-2,-2,-1,1,1,16,2,1
3423393565,-2,-2,0,0,-1,-2,-5,-4,1
3423393565,0,-5,-2,-1,-4,-8,-7,4,1
3423414189,-3,3,1,-1,1,-2,-3,0,1
3423414189,-4,-8,-4,3,1,5,8,-1,1
3423420639,4,5,0,-1,-1,1,8,3,1
3423420639,-1,1,-1,-3,-2,-10,-12,-2,1
3423428903,-6,0,-2,-3,-6,-8,-7,6,1
3423428903,5,-9,-1,-1,-1,8,5,-9,1
3423435584,2,2,-4,4,3,6,9,0,1
3423435584,-2,-9,-3,0,-1,-6,13,-4,1
3423452101,3,3,-2,5,2,8,14,0,1
3423452101,-7,-4,0,-3,-4,-6,-24,4,1
3423453542,5,0,1,1,1,-12,23,2,1
3423453542,-10,-2,2,-3,-3,7,-4,-7,1
3423474401,5,0,0,2,-1,8,-6,-1,1
3423474401,-2,-1,0,0,1,-4,3,-2,1
3423476002,3,-3,-1,-2,-2,-5,-17,2,1
3423476002,-4,2,0,3,2,-6,-9,0,1
3423488779,3,1,-1,1,1,3,20,-22,1
3423488779,8,-1,-1,3,0,8,39,29,1
3423495661,-5,-2,1,-3,-4,-4,-23,-9,1
3423495661,-1,-10,-2,-2,1,-3,-5,5,1
3423512048,-1,-5,0,-3,-3,-9,-1,0,1
3423512048,0,7,1,2,2,9,1,-13,1
3423513546,5,-12,-4,4,1,5,20,12,1
3423513546,-1,7,-1,0,-2,4,28,2,1
3423534568,-6,-1,3,-2,-2,-6,-9,0,1
3423534568,0,3,1,0,-3,-8,10,-3,1
3423536069,0,4,0,-3,1,6,-16,0,1
3423536069,-1,1,0,0,2,6,-5,-7,1
3423548787,3,5,-2,-1,1,-5,-4,11,1
3423548787,-2,-6,-1,-2,0,-6,-4,-9,1
3423555558,4,6,-3,1,1,8,30,1,1
3423555558,-1,-11,-1,-2,-3,-7,-15,0,1
3423571990,-5,2,-1,-2,-1,0,-10,0,1
3423571990,1,5,-1,1,1,0,-16,0,1
3423573548,-6,1,2,1,-1,0,-8,-11,1
3423573548,1,-4,-1,0,-3,-13,7,3,1
3423594510,1,-5,-2,-4,-1,6,-2,-1,1
3423594510,-1,3,-2,2,0,5,-19,0,1
3423596066,-3,1,1,-2,-1,-4,-8,-1,1
3423596066,-3,1,0,0,-1,-15,0,0,1
3423608794,2,9,-3,0,1,20,2,-3,1
3423608794,1,-5,-2,4,3,5,13,3,1
3423615625,-4,1,1,-3,1,-4,-2,-1,1
3423615625,5,0,-3,0,-2,10,8,0,1
3423639452,-3,-3,0,-3,-3,-15,-24,-3,1
3423639452,-2,-4,2,-2,-1,-6,-1,-6,1
3423641060,4,9,-1,2,1,6,9,6,1
3423641060,4,4,-2,3,0,2,7,3,1
3423654474,-8,-9,-2,1,3,3,3,-2,1
3423654474,2,3,0,-3,-2,0,5,2,1
3423656062,-6,-3,-2,-3,-3,-21,-36,-7,1
3423656062,2,4,3,1,2,24,24,4,1
3423668129,1,0,2,0,-4,-13,3,3,1
3423668129,-5,-3,-1,-4,-5,-3,-13,-1,1
3423677085,-1,-2,-3,-2,-2,10,-8,-3,1
3423677085,0,8,0,1,4,8,-27,2,1
3423691698,2,-22,-3,1,-2,-2,-11,4,1
3423691698,-5,4,0,0,-1,-9,-3,-8,1
3423698054,6,3,0,-2,-5,-10,3,0,1
3423698054,-5,-4,3,0,-1,-4,0,-3,1
3423714480,4,2,-1,0,0,-1,33,3,1
3423714480,-3,1,-3,-2,-2,-16,-3,2,1
3423716022,-6,-10,0,0,0,-4,-34,-3,1
3423716022,7,6,0,-1,2,9,39,4,1
3423728093,-9,0,1,-3,-1,0,-26,-6,1
3423728093,3,0,-3,3,0,7,49,4,1
3423737108,-5,2,-1,-4,-5,-35,13,7,1
3423737108,1,0,0,1,-2,23,-13,-2,1
3423751948,4,2,-3,-1,1,3,8,0,1
3423751948,0,-2,-5,-4,0,3,-10,-6,1
3423753593,-2,7,1,1,0,-12,-10,-2,1
3423753593,1,-1,0,2,-1,-5,26,4,1
3423782039,-1,-7,-1,-2,-3,-12,-23,-2,1
3423782039,-1,0,2,2,3,24,-6,5,1
3423783564,4,-2,-1,-1,-5,4,17,-4,1
3423783564,-4,-7,-5,-2,-4,-12,-23,-6,1
3423788173,-2,6,-2,3,2,2,2,-2,1
3423788173,0,-2,4,-1,-4,-38,-2,-2,1
3423797129,1,1,0,1,6,35,20,2,1
3423797129,1,1,-1,-2,-2,1,-23,-3,1
3423812022,0,3,-3,-1,-3,-8,26,3,1
3423812022,-1,-4,0,0,2,13,-10,-1,1
3423813586,-1,-6,0,3,2,8,1,-4,1
3423813586,-3,1,1,-4,-4,-20,-21,4,1
3423834688,-1,0,0,0,-3,-9,-23,-6,1
3423834688,4,3,1,0,2,23,12,5,1
3423836090,-2,-3,2,-3,-1,-1,-1,-2,1
3423836090,-4,-4,-3,1,4,-13,-12,-3,1
3423848182,1,5,-2,-1,-1,-13,2,5,1
3423848182,-1,0,-2,-3,0,33,-8,-6,1
3423857049,1,-2,-1,0,-1,7,-5,1,1
3423857049,-3,0,0,0,-1,-11,1,-3,1
3423871980,-1,1,2,-2,0,4,8,-1,1
3423871980,1,3,-2,-3,-3,-12,-2,-1,1
3423873560,0,-2,-1,2,0,-1,-2,0,1
3423873560,-2,-7,-1,-3,-2,1,1,-2,1
3423894509,2,3,-1,2,2,10,2,2,1
3423894509,0,-4,1,1,-2,-8,-1,2,1
3423896027,0,-2,2,-1,0,0,2,1,1
3423896027,-2,0,-1,-2,-3,-5,-2,-2,1
3423908126,3,0,1,-4,-1,5,0,-3,1
3423908126,-1,1,-4,-1,0,-9,0,-2,1
3423917275,-4,-6,1,-1,2,4,-7,0,1
3423917275,2,3,1,-2,-4,-5,17,-1,1
3423932082,-4,-8,2,2,-1,4,1,1,1
3423932082,-3,3,-1,0,-4,-6,-5,-1,1
3423934109,0,1,-4,0,-1,-7,14,0,1
3423934109,0,0,-2,1,2,1,-19,-2,1
3423954526,0,3,-2,-2,-2,-1,-15,-1,1
3423954526,-4,-6,0,1,-2,3,44,2,1
3423956068,4,9,4,4,4,41,3,-2,1
3423956068,0,-2,-2,-6,-2,-16,1,-2,1
3423968210,-1,1,-1,-3,-3,-6,-5,3,1
3423968210,-1,-4,0,-2,-2,-9,-3,-7,1
3423977179,-4,-1,-3,-2,1,-12,-11,1,1
3423977179,-6,-2,1,0,0,-20,-13,-2,1
3423992061,1,6,4,1,-2,23,27,2,1
3423992061,1,5,-6,-2,-1,-10,-6,0,1
3423993546,1,-2,-3,1,-1,14,13,2,1
3423993546,1,-5,2,-1,-3,-11,-6,-3,1
3424014449,-2,-6,-4,1,3,-5,-16,-2,1
3424014449,-1,0,0,0,0,-6,17,2,1
3424016012,-4,-5,-4,-3,-2,-11,27,2,1
3424016012,2,1,-1,-3,0,13,-6,2,1
3424028108,-1,-2,0,-2,-1,0,16,-1,1
3424028108,3,3,3,2,0,5,-27,-5,1
3424037040,-5,-5,-1,-3,-1,-7,-21,-4,1
3424037040,2,0,2,-1,-2,10,13,4,1
3424059462,-4,-3,0,-3,-3,-3,-8,-3,1
3424059462,2,-2,-3,-1,2,-6,-1,5,1
3424061060,-6,2,-1,-3,-6,-8,-12,-6,1
3424061060,0,3,-3,3,1,7,4,-1,1
3424074513,0,-4,-1,1,1,-3,-13,-2,1
3424074513,-2,-3,1,-2,-5,-28,-1,-2,1
3424076030,2,4,1,0,1,20,-14,-2,1
3424076030,-3,-6,-2,-4,-5,1,27,1,1
3424096929,1,5,-1,-1,0,-2,-3,-2,1
3424096929,1,-3,-1,-3,0,-7,-1,0,1
3424098509,-2,-8,-1,1,2,-9,-4,0,1
3424098509,-5,0,-1,-1,0,-4,-26,-6,1
3424111921,5,0,-1,5,3,11,67,12,1
3424111921,-3,0,0,-1,-3,9,-11,-2,1
3424113576,3,1,2,-1,2,-6,4,2,1
3424113576,-1,-1,-3,-1,1,8,-1,1,1
3424134460,1,1,0,-3,-2,-10,-8,-1,1
3424134460,-3,1,-2,3,-1,5,-25,0,1
3424136050,-3,-5,1,-6,-6,-2,4,-2,1
3424136050,3,5,-4,-1,1,3,3,3,1
3424156930,-2,-4,-2,-1,0,-11,-13,-4,1
3424156930,2,2,-1,2,-1,5,-6,2,1
3424158496,2,-1,0,1,-2,-17,9,1,1
3424158496,-5,-7,-1,-2,-3,-9,5,-1,1
3424171942,2,4,0,2,2,28,-6,2,1
3424171942,-2,0,1,-1,1,4,5,-3,1
3424174420,-1,3,1,1,1,-5,5,3,1
3424174420,0,-6,4,-2,0,-12,-17,-1,1
3424194415,2,3,-1,3,-1,-1,46,2,1
3424194415,-2,-3,0,1,0,4,-2,1,1
3424196073,2,1,-2,1,-1,0,-6,-2,1
3424196073,4,4,-1,1,3,14,6,0,1
3424217030,-11,-2,0,-5,-6,-17,-37,-3,1
3424217030,-1,-7,-1,-3,-2,-3,3,-1,1
3424218605,0,4,-3,-3,-4,-7,0,-1,1
3424218605,-2,-6,-2,3,1,4,-7,0,1
3424231338,-2,-1,1,1,3,2,-5,-2,1
3424231338,1,5,0,-3,-1,-7,5,-3,1
3424238100,-3,-11,-1,-2,-4,14,0,-1,1
3424238100,-1,6,-1,-3,-2,-3,0,-4,1
3424254438,-1,-5,-1,3,2,-1,-4,2,1
3424254438,1,-11,-4,0,3,17,24,4,1
3424256932,3,3,2,-1,-4,-6,-8,-2,1
3424256932,0,-1,1,-2,-2,-5,-5,-2,1
3424276956,0,-3,-2,-1,-2,-10,-6,-4,1
3424276956,-2,3,2,0,-2,-21,-27,-2,1
3424278609,5,3,-2,4,10,38,54,6,1
3424278609,-6,-1,-2,2,-3,16,-10,-7,1
3424292641,3,1,0,1,1,2,-12,-3,1
3424292641,-3,-4,0,-3,-5,-2,-3,3,1
3424298157,0,2,0,-4,-7,-30,-16,-4,1
3424298157,3,9,1,0,1,9,12,4,1
3424314552,-2,-5,-2,1,4,34,-11,-4,1
3424314552,-1,-3,1,6,4,9,21,1,1
3424318014,-4,0,1,-4,0,-11,-18,0,1
3424318014,2,-2,-1,0,-4,-6,-3,-3,1
3424337424,-4,-3,0,-6,-5,-22,-5,-2,1
3424337424,0,2,1,3,5,6,-4,1,1
3424339275,-2,3,1,1,-3,5,7,2,1
3424339275,-2,-10,4,-2,-1,-18,-3,-2,1
3424351436,8,6,-3,3,1,19,16,3,1
3424351436,-6,-11,-2,-4,-5,-12,-15,-5,1
3424358085,2,5,0,-2,-1,-7,-14,1,1
3424358085,-5,-3,0,-1,0,13,0,-2,1
3424374450,-2,0,-3,-3,-4,-10,-3,0,1
3424374450,-1,-4,0,1,2,0,6,-1,1
3424376019,0,5,4,0,-3,-12,-18,-5,1
3424376019,5,5,-2,1,0,2,11,8,1
3424396918,1,-2,1,0,-1,4,-4,-2,1
3424396918,-1,4,2,-2,-3,15,-4,0,1
3424398523,-3,-6,-1,-1,1,-8,-8,-3,1
3424398523,1,8,2,-1,1,-7,-3,-1,1
3424411252,-5,-9,-2,-2,1,-9,5,-1,1
3424411252,-2,1,-5,-2,-3,-4,-6,-2,1
3424418056,4,2,-2,6,3,16,21,5,1
3424418056,-3,-11,-2,1,0,-2,6,0,1
3424434367,-3,0,-2,-3,-3,3,-12,-3,1
3424434367,3,-2,-4,-2,-1,-2,-7,1,1
3424436011,-4,2,-1,-3,0,-6,-12,-2,1
3424436011,-4,-5,-1,-3,-3,-10,-22,-1,1
3424456961,-8,-5,3,-4,-3,-14,3,3,1
3424456961,-2,6,3,-4,-6,3,-10,-3,1
3424458526,-3,-7,-4,-2,-4,-20,5,-2,1
3424458526,3,2,-2,4,7,41,7,1,1
3424471263,2,15,0,-3,-6,-13,-30,-3,1
3424471263,-1,-5,1,-3,-2,-30,5,0,1
3424478099,-4,-13,1,-1,1,3,-19,-1,1
3424478099,2,6,-3,2,3,16,50,1,1
3424494451,2,2,1,1,-3,-11,-9,1,1
3424494451,-5,0,-2,-1,1,2,-10,-4,1
3424496014,3,1,-2,0,-2,-28,-1,0,1
3424496014,2,-10,-4,2,0,21,-7,3,1
3424516997,-1,2,-4,-3,2,1,7,-8,1
3424516997,1,0,1,-2,-2,13,-2,3,1
3424518801,-3,-5,1,-1,-1,9,-1,-1,1
3424518801,5,12,0,2,-5,-30,2,1,1
3424530563,2,-6,-4,3,3,23,-6,2,1
3424530563,0,0,-2,3,3,-1,6,-1,1
3424539613,4,4,-3,3,1,56,10,2,1
3424539613,-6,-3,0,-7,-7,-26,-4,-6,1
3424554428,6,-1,-6,4,5,8,23,5,1
3424554428,0,2,-1,3,3,5,14,0,1
3424556047,2,0,2,-1,-1,-6,13,1,1
3424556047,-8,-6,-1,-2,-4,-20,-16,-4,1
3424577232,0,1,-5,4,3,42,-2,0,1
3424577232,2,-1,0,-3,-3,1,-5,3,1
3424578504,1,10,0,1,-1,-7,-7,-1,1
3424578504,-4,-18,0,1,4,-5,-6,0,1
3424590563,-7,-3,6,-6,-5,-18,-13,-1,1
3424590563,1,13,1,2,0,-9,4,2,1
3424599677,-2,-1,-1,0,0,-1,1,-5,1
3424599677,-2,-10,1,-3,-4,-9,-28,-3,1
3424614862,5,6,-5,1,-1,0,35,4,1
3424614862,2,-8,1,-3,-1,-9,-6,-2,1
3424616471,-1,1,-2,3,4,-11,29,1,1
3424616471,0,8,-5,1,2,22,-40,0,1
3424636895,-1,-3,2,-5,-5,-9,14,-1,1
3424636895,1,-2,0,-1,-1,-3,5,-2,1
3424638496,8,8,-4,2,1,34,21,0,1
3424638496,-5,-4,0,2,2,24,3,-1,1
3424650579,0,3,0,4,6,9,-2,1,1
3424650579,0,1,-3,-1,-5,-12,-10,-1,1
3424659530,-4,-8,0,-3,-6,-23,-29,-4,1
3424659530,3,7,0,-4,-2,-5,16,0,1
3424674455,-5,-13,2,-2,-3,-20,-11,-6,1
3424674455,-1,-2,-1,0,1,10,14,3,1
3424676009,-5,-3,0,-1,-2,-9,-8,0,1
3424676009,1,7,1,-2,-2,-2,10,0,1
3424697184,0,-6,1,-3,-1,-10,-2,-1,1
3424697184,-1,-6,0,1,2,11,-3,-1,1
3424698553,-1,0,2,-3,-2,13,-16,-1,1
3424698553,-4,7,1,-2,-3,-30,-6,-5,1
3424710665,8,11,-1,9,6,51,14,8,1
3424710665,-3,-2,-3,0,-2,-2,-2,1,1
3424719540,-6,-7,-1,-4,-4,-20,-19,-3,1
3424719540,8,-1,-1,0,4,10,14,4,1
3424734460,2,5,5,-3,-6,-17,1,-7,1
3424734460,2,5,-1,0,0,4,2,-3,1
3424736014,-9,-8,-2,-3,-1,-9,15,-1,1
3424736014,-2,4,0,2,4,-3,-27,3,1
3424757050,-3,-6,-1,-3,-3,-10,-10,-1,1
3424757050,0,3,2,-2,-3,0,-1,-2,1
3424758539,-1,-3,0,-1,-2,-2,-5,-1,1
3424758539,0,1,0,1,1,-3,14,-2,1
3424770623,-3,-5,-1,-3,-2,6,-16,-2,1
3424770623,0,-2,1,-3,0,16,4,-2,1
3424779547,1,8,-1,0,0,6,-19,0,1
3424779547,0,-5,-1,-2,-1,-2,17,-1,1
3424794519,-4,-11,3,-3,-5,-35,-17,-5,1
3424794519,4,6,0,2,5,18,-10,3,1
3424796194,-4,-4,-4,-5,-6,-13,16,0,1
3424796194,3,-2,2,2,2,-4,-22,3,1
3424816866,5,3,-3,5,8,36,39,2,1
3424816866,-4,-1,0,-3,-4,-13,-5,0,1
3424818491,3,2,1,1,1,6,6,-1,1
3424818491,-5,-7,-1,-3,-2,-24,5,-4,1
3424830551,0,-8,-4,-2,1,20,-19,-1,1
3424830551,4,3,3,-2,-2,-17,29,1,1
3424839624,2,8,-1,-2,3,4,-11,4,1
3424839624,-6,-12,0,-2,-7,-19,-22,-6,1
3424854443,-4,6,2,2,0,-17,3,1,1
3424854443,-6,-9,-2,-2,0,8,-11,-5,1
3424856062,-3,0,3,-1,-5,-12,-2,-3,1
3424856062,6,6,-2,-2,1,14,0,1,1
3424876927,-3,0,-2,-2,-5,-30,-5,-4,1
3424876927,-2,-3,0,-1,-2,-9,-14,-2,1
3424878540,-4,3,-2,-2,-2,8,-15,-5,1
3424878540,3,-5,-1,0,-2,1,40,7,1
3424890573,-1,-2,0,-2,-1,5,-7,-2,1
3424890573,-3,-1,-2,0,0,-1,-9,-2,1
3424899543,0,2,-3,0,0,0,-10,0,1
3424899543,-3,-11,-2,-4,-6,-25,2,-5,1
3424914449,5,9,-3,6,5,33,-12,-1,1
3424914449,-3,3,0,1,-1,-11,16,5,1
3424916058,-2,-6,2,-4,1,-2,-1,0,1
3424916058,4,11,-2,1,2,9,3,-2,1
3424936911,-2,-1,-1,-3,-4,-36,1,2,1
3424936911,-1,-1,-3,1,-1,0,-20,-4,1
3424938501,4,-5,-2,-1,1,9,16,6,1
3424938501,-2,8,1,-1,-5,-15,6,2,1
3424950562,-10,-9,-2,-3,-1,-17,-18,-8,1
3424950562,2,4,-2,-2,-2,-2,-13,2,1
3424959534,-2,-2,0,2,-1,-6,14,-1,1
3424959534,-4,2,-1,0,-3,7,-10,-4,1
3424974402,5,-1,0,2,7,-3,13,8,1
3424974402,-2,-3,1,1,-3,-4,-23,-5,1
3424976005,1,2,0,0,-1,-3,5,2,1
3424976005,1,-3,-2,0,2,20,3,2,1
3424996922,-2,-3,-1,-2,-4,-8,-12,-2,1
3424996922,3,2,-1,2,1,13,44,-1,1
3424998529,1,-3,-3,3,1,1,-26,3,1
3424998529,-4,0,1,-4,0,18,2,0,1
3425010559,1,2,-3,-1,-2,-17,3,1,1
3425010559,0,-4,0,-2,0,-6,1,0,1
3425019678,-1,-7,3,-1,-1,-4,2,-3,1
3425019678,10,6,0,3,3,20,0,0,1
3425033980,-1,1,0,-1,-4,-1,-5,-1,1
3425033980,-9,2,2,-1,-2,7,-7,-1,1
3425040585,3,-4,-3,-1,1,4,5,0,1
3425040585,1,-5,2,1,-2,-6,18,0,1
3425056976,0,3,0,-1,0,8,6,-3,1
3425056976,1,-1,-1,0,-2,-10,-4,-3,1
3425058526,-1,3,0,-2,1,8,-6,-2,1
3425058526,-3,0,-1,-1,-3,-1,-5,3,1
3425080120,1,1,0,-3,-4,-1,3,-4,1
3425080120,-1,-1,-2,5,3,10,0,-2,1
3425081786,-2,2,-1,0,-2,-3,-7,-1,1
3425081786,-4,-5,-1,-4,-3,-45,-10,-2,1
3425094499,3,0,2,1,3,61,11,3,1
3425094499,-5,-6,-2,-6,-7,-23,-9,1,1
3425096035,7,4,2,3,5,26,13,-3,1
3425096035,-7,-4,-3,1,1,1,-8,-3,1
3425116925,-6,-3,-1,-3,-4,-17,-11,2,1
3425116925,6,0,-1,1,4,12,21,-1,1
3425118486,-9,-13,0,-4,-5,-7,-3,-3,1
3425118486,2,7,-1,-2,2,-19,-17,-2,1
3425139435,4,0,-1,3,2,20,52,1,1
3425139435,2,0,0,1,3,13,11,7,1
3425141014,-1,4,-3,-1,-8,-44,-6,-7,1
3425141014,1,1,-3,2,9,68,-12,1,1
3425154455,-4,0,4,-3,-6,-21,-4,-1,1
3425154455,2,-4,0,-1,-1,-2,-9,-1,1
3425155980,6,3,-3,3,5,31,32,5,1
3425155980,-8,-7,-1,0,-2,-2,-5,-4,1
3425176996,-1,-2,0,-2,-2,-28,-1,-2,1
3425176996,-2,0,0,-3,0,9,-1,3,1
3425178522,1,2,0,1,0,-10,-15,3,1
3425178522,2,3,-2,1,-3,9,9,-4,1
3425199453,0,-3,2,-1,1,-7,-3,0,1
3425199453,-7,-2,-3,-4,-6,-29,-13,-9,1
3425200994,9,3,-2,5,9,45,25,7,1
3425200994,-3,2,4,-5,-6,-18,3,4,1
3425213738,-2,3,-2,-1,-1,-3,-17,-2,1
3425213738,0,-5,2,-1,0,3,3,-2,1
3425220588,-9,-4,-1,-3,-6,-18,-15,-4,1
3425220588,-1,0,-1,0,-3,-14,-3,-1,1
3425236940,4,1,-5,4,9,45,0,0,1
3425236940,-3,0,0,0,0,3,-8,-1,1
3425238661,-4,-1,0,-3,-3,-11,-1,2,1
3425238661,3,2,1,-1,2,-13,-1,-8,1
3425259733,-3,0,-2,-3,-9,-37,-45,0,1
3425259733,4,1,3,0,7,66,66,-5,1
3425261093,8,2,-2,4,4,6,11,5,1
3425261093,-5,3,1,-1,0,-16,11,4,1
3425273789,-1,1,2,1,1,13,-21,-1,1
3425273789,1,-1,1,-2,-4,-18,-10,1,1
3425280586,1,-2,1,1,-3,6,2,-1,1
3425280586,-2,0,-6,4,5,39,16,-3,1
3425296922,4,-4,-3,2,0,-23,16,6,1
3425296922,-6,2,-2,-3,-3,-26,-19,4,1
3425298522,-1,-3,2,-4,-2,-13,-9,-4,1
3425298522,1,1,-3,2,-3,4,10,-8,1
3425319422,-6,1,2,0,2,9,10,-1,1
3425319422,4,2,-3,4,1,-11,1,2,1
3425322469,-8,-3,1,-4,-3,-20,-26,-7,1
3425322469,9,-14,-4,2,0,8,29,4,1
3425333876,-5,0,0,-2,-4,-16,-23,-9,1
3425333876,3,3,-2,2,5,43,16,2,1
3425340563,-2,5,3,-1,-2,-23,-31,-4,1
3425340563,0,-1,1,-3,-4,-17,-13,6,1
3425356906,-3,-5,-2,-5,-3,8,16,-2,1
3425356906,-4,-1,0,-2,-6,-62,-17,-2,1
3425358509,-3,-4,-1,-1,0,26,11,-2,1
3425358509,-1,4,-2,-2,-2,3,-5,5,1
3425379388,7,-1,-2,1,-2,-15,6,1,1
3425379388,-7,-6,0,-4,-1,-3,-3,-3,1
3425380986,-4,-8,-3,-5,-4,-26,-32,-6,1
3425380986,3,-2,4,-1,-4,-17,-6,1,1
3425393879,3,4,-2,2,-1,28,18,2,1
3425393879,-4,-2,0,-5,-3,-2,-28,-2,1
3425400653,-6,1,1,1,0,0,-7,-5,1
3425400653,-1,7,2,-4,-4,-17,-17,-3,1
3425416960,2,-5,0,-2,-2,-2,-16,5,1
3425416960,-1,-3,-2,-2,-1,10,-5,-2,1
3425418623,3,-6,-2,1,-1,-32,23,5,1
3425418623,2,5,2,1,5,24,-3,0,1
3425439290,3,15,3,1,1,-20,7,2,1
3425439290,-2,-5,1,-2,-1,-11,-4,2,1
3425446092,-1,6,2,-4,-4,3,22,2,1
3425446092,-2,-10,-4,0,0,-1,-4,-5,1
3425453838,-3,4,0,-1,5,-15,-22,-5,1
3425453838,6,-6,-7,0,-5,-28,16,6,1
3425460716,-4,2,-1,0,-2,11,-13,-3,1
3425460716,-4,0,-3,2,1,-7,-26,1,1
3425476920,-9,-6,0,-2,-7,-3,-12,-9,1
3425476920,6,2,1,-1,8,-3,4,0,1
3425478505,5,2,-1,1,3,29,-4,2,1
3425478505,1,-3,-3,0,0,-18,20,5,1
3425499426,-1,6,-1,-2,1,21,-21,-1,1
3425499426,-7,0,1,-1,-1,-16,3,-2,1
3425501012,7,-1,-6,1,4,58,0,2,1
3425501012,-4,6,0,0,4,34,-2,-3,1
3425513099,-6,-7,-5,0,1,-15,9,-1,1
3425513099,0,-5,1,-1,-3,2,-4,1,1
3425522034,1,12,-2,3,4,6,-15,-1,1
3425522034,-4,-5,1,-2,-2,-41,43,-6,1
3425536911,-1,-6,3,1,-1,19,15,1,1
3425536911,3,3,-5,5,0,-3,-4,-2,1
3425538566,-9,-4,2,-1,-3,-79,-11,-3,1
3425538566,14,-5,-5,7,7,74,41,-1,1
3425559470,-3,-5,-1,-5,-7,-17,-5,3,1
3425559470,0,2,-1,0,0,-11,-3,-4,1
3425560963,1,-2,0,-2,-2,15,24,4,1
3425560963,3,5,4,2,-2,11,-12,0,1
3425574506,4,0,-3,2,2,7,14,-1,1
3425574506,3,1,0,1,3,41,-14,0,1
3425582194,-15,-9,-4,-3,-1,0,2,0,1
3425582194,-3,7,2,-5,-6,-16,-18,-7,1
3425596940,6,-2,0,0,4,3,22,8,1
3425596940,-2,-9,2,-1,-4,-7,-26,7,1
3425598553,8,1,-2,6,4,70,44,-5,1
3425598553,-12,7,1,-6,-5,-22,-24,-1,1
3425619436,6,-2,-2,6,1,-31,34,-4,1
3425619436,-10,-2,-5,-1,1,30,-27,-2,1
3425621035,0,-8,0,-6,-11,-31,0,6,1
3425621035,-2,-9,-2,0,1,18,-54,1,1
3425633147,2,5,1,0,-2,12,9,-2,1
3425633147,2,-1,-1,0,-3,-15,0,0,1
3425642103,3,1,1,2,1,-2,30,-1,1
3425642103,-1,-2,-3,-1,-1,2,-3,-5,1
3425656936,-1,0,1,-5,-3,-25,-44,-9,1
3425656936,-3,0,2,4,10,50,55,8,1
3425658522,-9,-4,2,-8,-10,-43,-4,-4,1
3425658522,13,-1,-1,4,2,-13,17,7,1
3425679515,-3,-5,-3,0,2,8,-25,-5,1
3425679515,-2,-12,-2,-1,-8,-26,26,-1,1
3425681066,9,26,-1,7,10,1,-7,3,1
3425681066,-6,-6,-2,-1,0,-18,10,0,1
3425693134,1,5,-3,1,1,45,-1,-1,1
3425693134,2,5,-1,-1,-1,-5,-4,0,1
3425702107,-5,-5,-4,0,-3,-22,-39,-6,1
3425702107,7,14,2,3,-2,-13,20,7,1
3425716755,-10,-31,-3,2,7,-1,-2,-11,1
3425716755,4,13,1,-1,-5,2,-11,0,1
3425723190,4,-1,1,0,5,33,-3,0,1
3425723190,-10,-2,0,-3,-4,-42,-21,0,1
3425739477,9,18,-2,3,1,10,7,6,1
3425739477,-2,3,1,2,5,6,25,-8,1
3425741028,2,-14,-1,-1,1,13,-4,2,1
3425741028,-1,4,1,0,-4,-4,-4,-2,1
3425753069,-3,-9,-3,-3,-2,-8,12,4,1
3425753069,3,-5,-6,-4,-2,-2,-13,-2,1
3425762236,0,7,0,-2,1,-11,2,2,1
3425762236,3,-6,1,1,1,20,26,2,1
3425777048,-2,4,2,0,-3,-27,0,1,1
3425777048,3,14,1,-3,-5,12,12,1,1
3425778591,-12,-11,-4,-2,-6,-51,-17,1,1
3425778591,-1,2,2,-2,4,5,-20,2,1
3425799569,-13,-22,0,-7,-7,31,-14,-8,1
3425799569,0,1,5,-3,-4,-13,-15,-1,1
3425801048,1,6,-4,-2,-5,10,15,-1,1
3425801048,2,-9,-4,3,9,9,-5,-4,1
3425813134,0,19,0,1,0,-4,1,3,1
3425813134,-2,-8,-3,2,3,8,-4,-3,1
3425822095,2,-1,2,0,-4,19,2,-1,1
3425822095,-1,1,-3,-1,4,0,-4,-1,1
3425836839,-1,0,-1,-2,-2,-31,-7,-5,1
3425836839,1,-2,2,-1,-3,19,0,0,1
3425838511,-2,-3,-1,-1,0,-33,7,2,1
3425838511,-4,11,-2,-3,1,26,-14,-9,1
3425859506,-12,-17,1,-3,-2,-2,-5,-3,1
3425859506,-4,11,1,-3,-2,-27,-9,0,1
3425861068,0,-1,2,0,-1,10,-2,-2,1
3425861068,-4,-10,-5,-2,-5,-16,-13,0,1
3425873172,8,14,-2,4,6,11,26,7,1
3425873172,0,5,0,-3,-1,-4,1,0,1
3425882102,-2,-3,5,0,1,5,1,-4,1
3425882102,-4,-10,-1,-3,-6,-13,-22,-4,1
3425896994,-3,-6,-3,-1,0,14,3,0,1
3425896994,2,-4,-1,0,-1,6,-2,-4,1
3425898571,6,-10,1,3,5,-8,7,7,1
3425898571,0,10,3,-3,-3,-9,-7,-1,1
3425919548,1,0,1,1,-6,-28,14,4,1
3425919548,3,-14,-1,2,8,10,-13,5,1
3425921109,-10,2,-6,-2,-6,6,-6,-9,1
3425921109,4,3,2,1,-2,-16,-5,0,1
3425933125,7,6,-1,3,4,18,7,2,1
3425933125,-3,2,-2,2,-1,4,-1,2,1
3425942111,-4,-15,0,-2,-2,-1,-4,-4,1
3425942111,5,-1,-5,3,3,10,6,10,1
3425956975,3,4,0,-2,-4,-8,10,4,1
3425956975,-1,18,-1,-1,-3,-8,1,-2,1
3425958509,3,-2,-2,3,3,16,24,-1,1
3425958509,-3,-13,-2,-3,-3,31,8,-1,1
3425979529,0,-11,0,3,1,7,2,4,1
3425979529,-2,-2,-4,3,6,9,0,-5,1
3425981088,8,6,4,1,-6,-67,18,3,1
3425981088,-6,-8,1,-5,-2,6,-22,-8,1
3426002540,8,10,2,2,-2,-5,18,2,1
3426002540,-2,-7,-3,2,-2,-12,5,-2,1
3426004173,3,5,-4,-1,1,2,-8,-1,1
3426004173,9,-5,-7,7,11,53,33,6,1
3426018284,-4,2,-1,-6,-5,-9,18,0,1
3426018284,-5,1,3,-4,-6,-27,-10,-7,1
3426019043,0,-5,2,-1,1,23,1,1,1
3426019043,-6,5,0,0,-5,-29,-6,-2,1
3426039485,3,0,-4,0,4,41,-14,-3,1
3426039485,1,-2,-2,1,0,8,12,3,1
3426041193,5,17,1,0,0,3,1,2,1
3426041193,-8,-10,0,-2,-4,-25,0,-1,1
3426061989,3,14,1,0,-3,-22,-15,-1,1
3426061989,-8,-13,3,-1,-2,6,2,-7,1
3426063524,3,-1,-1,-1,0,5,13,1,1
3426063524,-6,-1,1,-4,-7,6,-18,-4,1
3426076995,2,14,1,-2,0,-1,-6,-1,1
3426076995,-3,-10,-2,-4,-13,-64,-8,-1,1
3426078609,11,3,0,7,14,40,4,11,1
3426078609,-7,-3,3,-3,-1,17,7,-13,1
3426099456,-3,-7,-2,0,-1,-1,-18,-4,1
3426099456,2,8,0,1,-1,-3,-2,-1,1
3426101099,-13,-15,-1,-4,-8,-35,-27,-8,1
3426101099,7,13,-1,-1,2,-19,21,4,1
3426121958,-4,-20,-7,-4,-2,6,-11,1,1
3426121958,7,13,0,7,12,50,32,7,1
3426123574,-1,-1,-6,1,-3,15,15,-1,1
3426123574,3,2,0,-1,-5,-4,-2,1,1
3426136284,-10,-3,4,-2,-9,-41,-16,-7,1
3426136284,4,0,-1,2,7,63,-5,5,1
3426143139,-4,0,1,-7,-4,-19,-17,-2,1
3426143139,0,-2,-1,1,-3,-23,7,6,1
3426159455,-3,-2,2,-5,0,-9,-4,-9,1
3426159455,-8,-9,1,-7,-10,-64,-14,-3,1
3426161071,2,2,8,-1,2,29,-3,-1,1
3426161071,-2,0,1,-1,-2,-23,-5,1,1
3426181995,5,4,-2,0,-3,4,-15,-1,1
3426181995,-3,-9,-4,-6,-2,6,0,2,1
3426183532,-7,-3,1,-6,-5,-6,-17,4,1
3426183532,6,-4,-1,2,1,-15,3,-1,1
3426196249,1,2,0,3,3,2,27,1,1
3426196249,-2,1,0,-2,-2,-19,5,1,1
3426203014,2,6,-3,0,0,31,-6,-3,1
3426203014,-1,7,-4,2,4,-2,-8,-2,1
3426219436,5,-1,-2,-2,-1,3,22,14,1
3426219436,-4,-1,0,-4,0,-8,-14,-7,1
3426221007,-1,3,-2,1,-1,-7,8,0,1
3426221007,-5,-1,2,-4,0,19,-2,-3,1
3426241961,5,-1,-4,5,8,63,-17,-3,1
3426241961,3,-4,-3,1,2,8,16,8,1
3426243584,-2,5,-1,-2,0,2,-15,-5,1
3426243584,-1,-8,-1,-1,-2,-10,14,2,1
3426256497,-8,5,2,-4,0,2,-32,-15,1
3426256497,-3,-3,3,-4,-3,2,-31,-7,1
3426263038,-1,-4,1,3,3,-1,8,-5,1
3426263038,0,4,1,-2,-2,-20,-14,-1,1
3426279391,-1,-5,-1,-5,-6,-23,31,2,1
3426279391,-14,6,-4,-8,-8,-42,-65,-17,1
3426281006,3,1,4,-5,-1,14,0,-3,1
3426281006,-4,-12,-2,0,-4,-11,2,8,1
3426301954,-1,5,0,0,1,-11,-16,0,1
3426301954,0,-3,1,0,-4,-4,-4,-7,1
3426303597,0,-5,-2,2,1,-9,22,2,1
3426303597,8,6,-7,4,3,42,40,-1,1
3426316438,2,-2,-1,0,-1,3,-8,7,1
3426316438,8,-1,0,4,10,42,7,-2,1
3426323046,-5,-1,-3,-2,-5,-35,8,6,1
3426323046,7,5,4,3,18,7,-26,-5,1
3426339448,-19,-13,4,-6,-11,-22,2,-9,1
3426339448,2,2,-2,2,0,1,5,-4,1
3426340974,0,-7,-2,-3,-6,-7,14,4,1
3426340974,-1,-2,-5,-8,-14,-6,-28,-7,1
3426361911,3,7,4,6,6,-9,13,-15,1
3426361911,3,-12,-2,2,-3,-28,10,11,1
3426363627,2,4,0,6,9,37,-9,-1,1
3426363627,-9,9,0,-7,-13,-62,13,-6,1
3426376282,1,-10,2,1,8,60,-58,-11,1
3426376282,-5,7,0,-7,-14,-18,-20,-9,1
3426383152,1,1,0,-2,0,-8,24,5,1
3426383152,5,7,1,2,1,30,-7,1,1
3426399507,-15,-7,-2,-5,-4,-73,17,6,1
3426399507,6,-1,-8,9,28,104,-8,1,1
3426401075,-8,8,1,-5,-14,-112,-11,-4,1
3426401075,3,-9,-1,-1,2,26,20,6,1
3426421996,11,8,-3,7,6,28,14,10,1
3426421996,1,-3,0,-3,-13,-53,29,8,1
3426423528,-7,-13,-3,-6,-4,-12,-58,-11,1
3426423528,19,17,3,19,36,112,98,19,1
3426436211,-6,-1,1,-7,-15,-71,-67,-10,1
3426436211,2,-6,-5,4,7,7,-3,-3,1
3426443207,10,10,-1,5,5,48,-8,2,1
3426443207,-22,-10,-1,-12,-30,-128,-50,-13,1
3426459513,23,-9,-3,11,14,106,27,5,1
3426459513,-13,1,1,-5,-8,52,20,5,1
3426461113,-6,2,3,0,1,40,1,-4,1
3426461113,0,7,-1,0,-1,2,-20,-6,1
3426481921,-6,3,-4,-3,-10,-75,22,-1,1
3426481921,5,5,3,0,-1,-30,-10,0,1
3426483706,-9,-13,-1,-1,-6,-17,-11,-6,1
3426483706,5,-4,-6,2,-2,-56,-3,7,1
3426495634,-9,15,5,-11,-16,-47,4,-3,1
3426495634,9,-9,-2,8,11,22,22,2,1
3426504536,2,12,2,0,2,10,9,3,1
3426504536,-4,-3,0,1,1,16,5,-4,1
3426519460,-3,-3,-7,-2,-4,-4,3,1,1
3426519460,-7,1,0,-1,-2,-10,-20,-1,1
3426521247,-10,-25,1,-5,5,-9,-19,-9,1
3426521247,-3,1,6,-8,-10,14,-11,-4,1
3426541951,1,-3,-5,-1,1,-6,11,7,1
3426541951,4,9,2,-4,-3,-8,-10,2,1
3426543508,-1,0,-2,5,5,37,-5,1,1
3426543508,5,13,-2,0,2,9,8,5,1
3426555528,-15,-15,-4,-6,-5,-17,-34,-14,1
3426555528,13,2,2,2,2,-48,23,16,1
3426564614,2,-3,1,-1,-6,-47,20,3,1
3426564614,-2,4,0,-5,-4,15,4,1,1
3426579443,-5,2,-1,3,7,-17,-4,2,1
3426579443,-10,0,0,-5,-10,-7,-26,-11,1
3426581006,7,-12,0,-1,-1,-14,55,5,1
3426581006,-1,-9,-1,-1,1,-2,4,6,1
3426601977,6,10,-1,-1,1,33,4,5,1
3426601977,-9,-2,4,-3,-10,-12,-24,-8,1
3426603640,5,-4,-2,4,3,-18,40,5,1
3426603640,-3,-7,-2,1,-1,29,-22,-10,1
3426615804,4,1,-2,0,2,-1,9,6,1
3426615804,0,-1,2,2,7,-4,21,-1,1
3426624548,-2,14,-3,-3,-6,-24,-12,-2,1
3426624548,-1,-12,-2,1,8,26,-45,-10,1
3426639568,-1,6,-1,0,-3,-5,-1,-3,1
3426639568,7,5,-3,1,-2,-19,24,3,1
3426641038,-3,-11,-2,0,6,38,-5,1,1
3426641038,0,7,-1,-1,-4,-24,1,1,1
3426661988,4,-8,-2,1,5,39,12,4,1
3426661988,-2,4,-1,-2,-6,6,-10,-2,1
3426663542,-1,5,-4,0,-1,-8,-14,-4,1
3426663542,1,-3,1,0,1,-19,5,3,1
3426675569,-4,0,-1,0,-3,22,25,-4,1
3426675569,-1,-9,-1,-3,-2,-1,19,5,1
3426684657,1,6,-1,0,-1,0,-21,0,1
3426684657,-4,1,-1,0,-1,-13,-10,-5,1
3426699514,1,-5,0,3,4,-13,6,4,1
3426699514,0,8,0,-1,-3,-10,11,-4,1
3426701108,2,-8,-2,-2,-1,38,-8,-2,1
3426701108,-3,-5,-4,1,-3,-24,3,5,1
3426721928,8,6,6,-1,-6,-10,-1,9,1
3426721928,0,4,-2,0,3,5,2,0,1
3426723493,-3,-2,-2,-2,-1,-24,-8,-2,1
3426723493,6,3,-1,1,1,35,10,0,1
3426735588,-9,-13,-4,-1,0,0,-10,-3,1
3426735588,6,6,1,0,2,-5,12,2,1
3426744594,-5,2,-2,1,3,35,-39,-7,1
3426744594,-4,-4,-3,-6,-4,-22,-7,0,1
3426759452,2,6,0,1,6,5,0,-1,1
3426759452,2,-2,-3,3,4,29,8,3,1
3426761026,-5,-2,-2,0,-2,-12,-12,-4,1
3426761026,0,-1,3,-2,-2,3,6,-2,1
3426782054,4,-3,-2,-2,0,-14,-2,-2,1
3426782054,-7,-2,1,-6,-8,-19,-15,-3,1
3426783529,5,8,0,3,1,-12,17,0,1
3426783529,-1,-6,-3,4,3,30,38,6,1
3426795744,12,-1,1,1,3,13,-17,6,1
3426795744,-6,-4,-4,0,1,12,-1,-1,1
3426804603,1,5,3,-1,-3,-20,6,-2,1
3426804603,-1,-7,0,-1,-1,-3,-18,-1,1
3426819445,-4,0,-3,1,-1,3,9,-4,1
3426819445,1,2,-3,-1,1,-13,-14,-2,1
3426821053,1,-10,0,-2,-1,12,26,8,1
3426821053,-5,8,-4,-2,-5,-35,-14,-9,1
3426841975,-1,-2,1,-1,2,43,-35,7,1
3426841975,4,2,1,0,4,-10,1,2,1
3426843627,0,12,-2,1,-7,-12,7,1,1
3426843627,-6,-16,1,-3,-1,6,0,0,1
3426855619,-3,10,2,-2,-5,-30,4,-6,1
3426855619,0,-8,1,1,-3,-6,31,7,1
3426864588,6,-2,-6,0,3,45,-29,-10,1
3426864588,8,14,2,1,3,13,-18,-1,1
3426879553,-5,-10,1,-3,-1,-4,17,3,1
3426879553,-6,-3,-2,1,1,-6,6,-4,1
3426881111,-5,5,6,-5,-9,-55,-3,-1,1
3426881111,2,-17,-8,7,15,79,-1,4,1
3426902005,2,16,-2,0,-2,24,-19,-6,1
3426902005,5,2,-1,2,1,4,-2,3,1
3426903615,-3,1,0,1,1,-21,-2,0,1
3426903615,1,-1,-1,2,1,-7,16,-1,1
3426924431,0,-1,0,-3,0,-22,12,-3,1
3426924431,1,2,-3,2,3,42,5,2,1
3426926028,-5,-17,-3,-1,0,1,-9,2,1
3426926028,-3,-1,0,-6,-7,-40,-51,-13,1
3426939394,11,-7,-1,8,8,76,60,7,1
3426939394,-4,0,-1,-7,-7,-24,-13,-1,1
3426940987,-2,-4,-2,1,0,14,2,0,1
3426940987,-2,4,2,0,-5,-46,5,-3,1
3426961897,5,16,-6,10,11,60,2,0,1
3426961897,-2,-3,1,-4,-7,-22,-7,-3,1
3426963552,3,15,7,0,1,25,3,2,1
3426963552,5,-11,-3,2,-1,24,33,5,1
3426984523,-4,5,1,-4,-7,-45,-19,-1,1
3426984523,-9,-2,-1,1,2,-23,2,-4,1
3426986105,7,5,1,3,9,30,-9,2,1
3426986105,0,3,-1,-5,-7,-39,12,7,1
3426999465,-9,-12,2,-7,-8,-8,-26,-8,1
3426999465,-1,8,3,-2,-5,-8,-14,-1,1
3427001025,-5,-13,-1,-3,-2,6,9,0,1
3427001025,-4,17,1,-2,0,-31,-11,-4,1
3427021881,1,-11,0,-3,-5,-20,11,-1,1
3427021881,0,-6,0,-5,-4,1,1,-1,1
3427023563,1,1,-3,0,-3,-14,3,-3,1
3427023563,-5,-13,2,-2,-4,4,-13,-2,1
3427051956,-1,-1,-2,-2,-7,-40,-9,-3,1
3427051956,1,5,3,3,5,16,27,1,1
3427053551,3,-9,-3,-2,1,2,17,-1,1
3427053551,-3,-4,1,-1,-2,-6,4,-3,1
3427059393,-1,0,2,-3,-2,-3,-8,0,1
3427059393,1,-13,0,3,1,25,5,0,1
3427061435,3,9,-1,1,-1,-14,-48,2,1
3427061435,4,-1,0,1,3,13,83,8,1
3427081985,0,6,-1,0,3,-17,-10,0,1
3427081985,-5,0,-4,0,2,-3,-10,-4,1
3427083595,-5,-6,5,-4,-5,14,-2,-2,1
3427083595,2,14,-1,0,-2,4,-6,5,1
3427111979,-3,-6,0,1,1,-8,8,-2,1
3427111979,0,-8,0,-2,-5,-23,1,-2,1
3427113604,-3,-1,1,-4,-5,-26,-18,2,1
3427113604,-4,-9,-4,-3,-2,5,-20,-5,1
3427118789,2,10,2,-1,-5,12,47,2,1
3427118789,-3,-3,-1,0,2,-15,-21,-5,1
3427125634,-2,3,0,0,-3,-1,3,-4,1
3427125634,4,-11,-1,0,-3,-21,-9,2,1
3427142262,6,4,-2,5,10,12,24,3,1
3427142262,-4,7,2,0,0,34,-4,6,1
3427143530,3,-17,-4,-1,-4,-27,19,3,1
3427143530,-7,-3,2,-3,-2,2,-18,-6,1
3427164410,6,7,-3,2,-5,-21,34,3,1
3427164410,-3,-6,-2,3,6,39,9,3,1
3427166028,-3,8,-2,-3,0,-11,2,-3,1
3427166028,2,-5,1,3,3,22,-9,1,1
3427178767,-4,4,0,-2,0,-12,-10,-2,1
3427178767,2,-5,-1,1,0,-14,-16,-1,1
3427185846,-4,3,-4,0,-1,4,-17,4,1
3427185846,1,0,1,0,2,27,-11,-6,1
3427201980,-7,-20,-2,0,-1,-1,-15,-1,1
3427201980,1,13,-4,-1,-4,-17,-9,-3,1
3427203549,-2,-5,1,0,2,9,-33,2,1
3427203549,2,7,0,1,2,22,54,3,1
3427224454,1,4,-3,4,3,-32,-3,5,1
3427224454,-6,-20,0,-3,0,-16,-43,-16,1
3427226037,6,6,-1,5,8,60,21,3,1
3427226037,-4,6,2,-1,-2,-16,0,-5,1
3427238732,1,-6,-2,-3,-5,9,-30,1,1
3427238732,-2,-4,3,1,3,17,46,0,1
3427245585,1,6,-1,-1,-3,-25,13,-2,1
3427245585,-3,-1,-2,-1,-4,0,-24,-1,1
3427261963,0,-15,-3,-3,-3,7,-15,-6,1
3427261963,5,6,0,2,2,-13,-21,9,1
3427263576,-5,0,1,-4,0,11,3,-3,1
3427263576,2,10,-5,1,-1,4,10,2,1
3427284507,-4,0,2,-2,-4,-14,-33,-6,1
3427284507,4,0,0,-2,-4,-4,5,-4,1
3427286046,-7,-18,3,0,1,-17,22,1,1
3427286046,-2,9,3,-1,1,11,-41,-10,1
3427298869,-1,0,0,1,2,3,-16,0,1
3427298869,-3,-29,-4,-3,-4,-6,5,1,1
3427305600,-3,7,0,0,-5,-37,-47,-4,1
3427305600,-2,1,5,-3,-3,11,22,2,1
3427321952,-6,-10,1,-2,-2,-14,5,4,1
3427321952,4,23,0,0,-4,-15,6,-7,1
3427323539,-3,-15,-2,-6,-6,-5,-35,-1,1
3427323539,5,-9,0,2,4,-3,9,12,1
3427344923,6,13,-2,0,-1,4,31,-2,1
3427344923,-6,-5,-4,-5,-3,-5,1,-2,1
3427346525,-2,13,0,-1,-3,-29,3,-4,1
3427346525,9,-1,-3,7,13,50,27,7,1
3427358781,-4,-6,-1,-3,-4,10,-17,-4,1
3427358781,7,11,0,5,4,17,-12,-1,1
3427365580,-8,-13,2,-2,0,4,29,0,1
3427365580,-4,-12,-3,-5,-10,-37,-9,1,1
3427389392,-4,-8,0,-1,1,-15,-24,-6,1
3427389392,0,6,3,0,0,4,-18,0,1
3427391037,8,6,-5,2,2,2,26,8,1
3427391037,-6,-5,-3,-4,-5,-1,-25,-3,1
3427404443,-8,0,2,-4,-7,-15,-30,-10,1
3427404443,8,4,2,2,1,17,50,10,1
3427406047,-1,0,2,-2,-3,-14,2,0,1
3427406047,3,9,0,5,2,-2,-1,0,1
3427418147,8,1,-8,6,13,67,21,1,1
3427418147,5,7,1,-2,-4,-2,18,-1,1
3427427201,-4,6,-1,2,-2,-8,25,1,1
3427427201,0,7,1,2,3,14,-9,2,1
3427441942,2,2,-3,0,6,-28,7,2,1
3427441942,-2,-18,-5,-3,-2,26,-5,2,1
3427443548,6,8,-2,1,1,7,2,2,1
3427443548,-4,-1,-3,-4,-2,-19,-6,-3,1
3427464451,-9,-1,0,-8,-9,-23,-13,-2,1
3427464451,-3,-1,2,1,0,6,7,2,1
3427466076,-1,-4,-2,-2,3,25,-1,-4,1
3427466076,-4,4,-4,-2,-5,17,0,-5,1
3427478149,-3,-3,2,-3,-7,-34,3,1,1
3427478149,1,1,-4,-2,-2,17,-21,-7,1
3427487119,1,2,-4,4,9,-6,4,12,1
3427487119,1,0,0,-1,-4,-3,4,-2,1
3427502010,2,1,-2,2,2,26,16,0,1
3427502010,-4,1,0,0,-2,-60,-14,-1,1
3427503581,2,-1,0,-5,-4,2,-4,-1,1
3427503581,-1,-6,3,-1,0,-16,-15,-7,1
3427524457,-1,-6,0,-2,-3,9,15,0,1
3427524457,-4,6,0,-2,-2,-11,-9,0,1
3427526036,-1,-1,0,1,1,-46,-7,-3,1
3427526036,-3,-10,2,-2,-3,-19,3,4,1
3427538150,-5,7,0,-5,-11,-30,-8,-5,1
3427538150,6,-3,0,1,5,24,2,8,1
3427547319,7,8,0,-2,-4,26,-24,-7,1
3427547319,-21,-2,1,-5,-4,-24,31,1,1
3427562015,1,-14,1,2,6,25,-4,0,1
3427562015,-7,-12,0,-3,-6,-25,-3,-5,1
3427563552,8,12,-1,4,6,89,-30,2,1
3427563552,4,-3,-1,1,2,6,-19,-3,1
3427584489,-3,4,-2,-1,-1,-6,11,4,1
3427584489,-4,2,1,-4,-5,-13,-8,-1,1
3427586072,-2,-11,-1,4,-2,-28,25,-4,1
3427586072,4,3,-2,3,4,11,1,3,1
3427598167,1,0,-1,1,3,29,7,-2,1
3427598167,-1,-2,-1,1,2,-24,-3,6,1
3427607058,-5,-1,0,-3,-4,-31,2,-8,1
3427607058,6,-1,-4,3,3,14,-5,1,1
3427621977,3,4,2,-2,-1,13,8,3,1
3427621977,-2,-2,-2,2,3,-10,11,-1,1
3427623530,1,0,2,-5,-3,22,8,-3,1
3427623530,3,3,-1,2,-1,-9,26,-2,1
3427644424,3,5,-2,4,-2,4,-9,4,1
3427644424,-6,-8,1,-2,-8,-3,-10,-3,1
3427646000,-3,2,3,-3,0,0,-14,-2,1
3427646000,4,-3,-5,-1,-2,-8,6,0,1
3427667012,2,4,2,7,9,39,-4,1,1
3427667012,2,7,-2,-1,-2,-2,-19,2,1
3427668516,-6,-11,0,-2,-3,-5,10,1,1
3427668516,2,2,1,1,-2,20,-13,-2,1
3427682046,-4,1,1,-3,1,-44,-5,-4,1
3427682046,4,1,-2,-1,2,13,22,1,1
3427683578,0,1,2,2,5,6,9,1,1
3427683578,-3,-1,2,-8,-4,-6,-5,2,1
3427704514,-5,0,-2,-1,-2,-23,-8,-8,1
3427704514,-3,-1,-2,0,-2,-27,-67,-5,1
3427706029,12,0,0,9,11,61,88,10,1
3427706029,-3,1,-6,-2,0,16,-27,-1,1
3427718101,-7,-2,1,-5,-7,-43,-15,1,1
3427718101,1,0,4,0,1,35,17,3,1
3427727058,-2,2,-4,-4,-8,-38,-23,-9,1
3427727058,-10,-9,0,-3,-3,11,10,1,1
3427741960,10,4,1,3,3,-13,21,3,1
3427741960,10,9,-10,8,9,61,16,-3,1
3427743552,6,-3,-1,5,7,47,-6,6,1
3427743552,-11,-1,1,-7,-16,-48,15,-4,1
3427764475,12,-1,0,1,0,-18,-2,8,1
3427764475,8,-2,-4,8,7,35,14,-1,1
3427766101,-4,2,-1,-3,-2,-58,0,-1,1
3427766101,6,2,-3,8,16,60,-40,-9,1
3427778091,-9,-5,3,-7,-12,-29,35,4,1
3427778091,-6,-3,1,-3,5,11,3,-3,1
3427787102,-3,3,3,-2,-3,-20,-9,1,1
3427787102,-3,4,-3,1,-2,26,-15,-5,1
3427801976,-4,-4,0,-3,-5,-44,-8,-2,1
3427801976,3,2,0,1,-1,32,29,3,1
3427803506,-4,-3,-3,-1,0,56,-65,2,1
3427803506,-1,-4,3,-5,-11,-33,9,5,1
3427824469,1,-2,-5,3,1,27,-5,-5,1
3427824469,-9,-2,-1,-4,0,-18,7,-1,1
3427825995,-9,-5,0,-9,-10,4,-25,-7,1
3427825995,3,-1,0,-1,-2,-33,-9,3,1
3427838051,2,-2,7,1,2,59,-3,0,1
3427838051,7,1,-5,5,2,-9,4,1,1
3427847067,-4,-3,4,-1,-2,-1,8,0,1
3427847067,10,2,0,6,6,22,5,1,1
3427861327,-11,-3,-7,0,-3,-31,-9,0,1
3427861327,8,0,4,2,6,-8,23,2,1
3427868079,-4,-2,2,-1,-10,-91,2,6,1
3427868079,13,0,-6,6,0,73,16,-6,1
3427884554,12,2,-1,6,7,60,-7,2,1
3427884554,-7,0,1,0,1,7,-15,-2,1
3427886083,3,-3,-6,0,4,18,11,-3,1
3427886083,-3,5,0,-2,-4,-33,-13,1,1
3427906903,5,0,-3,-7,-8,-26,1,-3,1
3427906903,-26,-23,4,-10,-8,-11,-4,-2,1
3427908517,11,4,6,0,-5,-66,5,-3,1
3427908517,-9,-21,0,-7,-8,-78,-20,5,1
3427921298,-7,-38,-5,4,11,63,2,-4,1
3427921298,21,54,-1,-14,-21,-58,-38,1,1
3427928132,-24,-11,-4,0,3,-11,-18,-4,1
3427928132,10,0,-2,1,8,61,-14,15,1
3427944536,-4,6,-1,-6,-9,21,33,-21,1
3427944536,-10,-21,-3,0,-3,-58,-49,-59,1
3427946087,12,4,-3,-3,6,2,-16,40,1
3427946087,-3,14,2,3,7,-1,18,-8,1
3427967017,-16,-20,-8,-5,-3,20,-16,-2,1
3427967017,-5,0,4,1,-4,-26,-5,5,1
3427968545,8,20,-1,4,1,31,39,-11,1
3427968545,-6,-33,0,1,2,-10,23,-1,1
3427981312,-8,15,1,-3,-9,-93,-23,2,1
3427981312,-2,-13,2,-2,-4,-34,15,-3,1
3427988778,-3,6,-2,-6,-3,-7,4,4,1
3427988778,-1,6,-1,-2,1,-45,9,7,1
3428003763,-6,10,2,-4,-1,-16,-37,-8,1
3428003763,3,0,0,-2,-4,19,-16,13,1
3428004495,-7,-20,-4,2,2,6,28,-1,1
3428004495,8,21,-1,0,-5,-22,-23,2,1
3428026308,2,7,-3,2,5,-19,-1,-8,1
3428026308,7,5,4,3,3,76,25,1,1
3428027001,5,6,2,1,-6,-43,0,4,1
3428027001,4,3,-1,5,7,21,3,-11,1
3428040567,2,-10,4,-1,-8,-28,30,11,1
3428040567,3,5,-4,1,12,98,-10,2,1
3428048741,-2,-1,6,2,-4,15,-10,-15,1
3428048741,-10,-24,-5,1,-4,-9,31,4,1
3428063749,5,5,0,3,3,9,-2,3,1
3428063749,-7,0,1,0,3,-86,-16,-3,1
3428064581,8,-9,-3,3,6,54,47,-6,1
3428064581,-4,2,2,-1,7,36,-4,-7,1
3428086204,3,9,1,2,4,17,-23,3,1
3428086204,-5,-18,-4,3,3,-19,67,7,1
3428086995,4,5,0,-4,-5,-4,-3,3,1
3428086995,7,8,2,-2,-2,-33,-2,0,1
3428100585,-5,-11,-1,1,1,40,3,-4,1
3428100585,-1,7,1,-1,-3,5,-10,6,1
3428108829,2,-16,-5,2,4,51,-12,-13,1
3428108829,-5,9,-1,-2,0,12,3,-2,1
3428123715,5,0,1,-1,-1,-6,0,-5,1
3428123715,-4,4,0,2,1,-10,-39,9,1
3428124531,-5,-13,1,-5,-4,-19,2,-2,1
3428124531,-3,12,-4,0,-1,-3,5,-5,1
3428146230,-15,-13,3,-3,-3,-73,-66,-15,1
3428146230,7,3,-6,1,-1,52,22,10,1
3428147061,-13,2,-3,-1,-2,-17,-18,-17,1
3428147061,3,-6,0,-2,-3,4,-23,-5,1
3428160586,13,13,1,0,-1,2,76,15,1
3428160586,1,0,-1,-1,4,18,30,2,1
3428168819,-3,-5,-7,3,4,27,-32,-4,1
3428168819,2,12,4,-1,5,69,7,2,1
3428183734,-4,0,0,-3,-2,-8,1,1,1
3428183734,-4,-5,5,-6,-9,-15,5,-5,1
3428184530,1,2,-2,-3,-3,-7,17,1,1
3428184530,-3,-11,-1,1,0,-37,-10,-4,1
3428206252,14,13,-5,4,7,46,14,11,1
3428206252,-7,-7,3,-2,-5,-17,-1,0,1
3428207040,5,4,-3,6,10,45,-20,-1,1
3428207040,0,3,-1,-3,-2,-26,4,11,1
3428220618,-4,-12,-2,-5,-4,2,-16,-7,1
3428220618,-3,-13,-4,-3,-3,-13,0,2,1
3428228857,4,13,3,-5,-7,-40,-4,1,1
3428228857,0,-13,-2,-1,4,39,-27,1,1
3428243783,3,3,5,1,1,8,17,4,1
3428243783,-4,3,-1,-1,2,3,-22,-4,1
3428244501,-7,-3,1,-3,-8,-18,-14,-6,1
3428244501,-1,1,0,-3,-8,-29,-3,-2,1
3428266212,-3,0,-4,2,10,20,-20,-4,1
3428266212,1,1,-3,0,-1,-26,-11,-7,1
3428267000,6,1,0,5,4,0,25,18,1
3428267000,16,7,-1,9,14,55,25,9,1
3428280600,-1,3,-3,0,-4,-24,-6,-3,1
3428280600,-5,-2,-3,-3,-6,-17,-3,-8,1
3428288810,3,-1,1,2,-2,8,-20,-5,1
3428288810,-5,12,-1,-6,-8,-68,9,-4,1
3428303937,3,-1,-1,5,7,92,33,5,1
3428303937,2,2,-3,1,2,26,-58,-1,1
3428304513,-12,-3,-3,-6,-7,-54,0,-5,1
3428304513,0,-5,0,-1,-6,-7,4,-2,1
3428326208,-4,8,1,-1,-2,-17,-13,-4,1
3428326208,-7,-6,-1,-4,-4,-11,-13,-4,1
3428327004,3,6,0,-1,1,-28,-6,-11,1
3428327004,-11,-5,-2,-1,-3,-53,-17,-9,1
3428340547,5,7,1,3,7,63,-9,2,1
3428340547,4,-5,1,-3,-3,-5,21,6,1
3428348835,-12,-2,2,-6,-5,-53,-33,-8,1
3428348835,10,-8,-3,10,13,91,98,9,1
3428363749,-2,3,1,-5,-9,-67,-19,8,1
3428363749,1,-14,1,-2,0,-4,34,0,1
3428364525,-16,-13,-3,-4,1,-23,-30,-12,1
3428364525,-2,2,3,-6,-10,-21,-31,-13,1
3428386247,6,-1,-1,0,-2,-3,11,12,1
3428386247,0,2,0,2,2,-1,13,3,1
3428386943,1,2,0,-7,-9,0,20,6,1
3428386943,-6,-6,-1,-2,-4,-11,-18,-7,1
3428400686,-5,-3,-1,-1,-4,-54,-14,-2,1
3428400686,3,6,2,-3,-2,53,-3,-5,1
3428408825,1,0,4,6,2,1,23,4,1
3428408825,-7,-1,1,0,3,1,-2,0,1
3428423720,0,12,-1,-7,-7,-11,-36,-1,1
3428423720,2,2,-1,2,2,-13,28,9,1
3428424486,6,0,0,0,-3,-40,-28,-3,1
3428424486,-5,-4,5,-1,1,35,45,4,1
3428446235,3,4,-1,4,4,-11,-3,-3,1
3428446235,-3,-5,-4,-1,-6,-19,8,5,1
3428447048,5,2,2,-3,-2,3,10,-6,1
3428447048,5,1,-12,6,14,30,1,2,1
3428460642,-11,-10,3,-6,-4,3,0,-9,1
3428460642,4,6,-2,3,2,-3,22,3,1
3428468820,8,-1,-3,2,2,37,32,8,1
3428468820,-1,9,-1,1,3,-5,-28,-1,1
3428483801,-4,-15,1,4,4,57,19,-9,1
3428483801,-6,-5,0,1,2,-8,-12,-4,1
3428484500,2,-7,1,-4,-5,-3,-4,8,1
3428484500,2,-2,5,-2,-3,0,-13,-2,1
3428506442,4,3,-4,0,0,-14,21,3,1
3428506442,-7,11,-2,-1,-7,-19,-38,-10,1
3428507053,-1,-8,-3,1,5,52,-7,-4,1
3428507053,6,5,-2,-6,-8,-40,20,5,1
3428520635,4,-13,-2,3,3,20,-16,-1,1
3428520635,6,4,1,4,5,36,8,6,1
3428528831,-1,5,-2,4,3,16,5,6,1
3428528831,-2,-7,-1,-3,-6,-17,14,-1,1
3428543723,-10,-3,-2,-2,-8,-39,-53,-1,1
3428543723,2,5,0,-5,-1,-13,2,2,1
3428544492,-1,3,-1,-2,1,10,5,-5,1
3428544492,4,3,2,2,2,-16,-35,2,1
3428566259,-5,-6,0,1,0,20,18,0,1
3428566259,-3,-4,-1,-2,-4,-14,-5,-6,1
3428567025,0,9,-1,1,2,21,-4,0,1
3428567025,-5,-7,-1,-4,-4,-24,-11,0,1
3428580579,1,3,-2,-1,3,15,20,8,1
3428580579,4,8,-2,3,-1,-3,17,2,1
3428588778,-7,-7,1,-2,-4,-27,-36,-11,1
3428588778,4,-1,-2,-1,1,34,1,-4,1
3428603760,1,1,0,3,0,-24,32,-2,1
3428603760,-2,-4,0,-4,-2,2,-58,3,1
3428605201,6,2,-2,0,0,12,54,9,1
3428605201,-6,-5,0,1,2,-26,-15,-2,1
3428626306,5,14,-3,-1,-3,-15,16,-2,1
3428626306,-5,-2,1,0,-1,-7,23,-1,1
3428627017,2,1,-4,-1,-4,-34,9,0,1
3428627017,0,0,2,-3,0,11,-21,0,1
3428640582,-5,-3,3,-3,-5,8,23,2,1
3428640582,4,1,-4,1,2,-6,1,8,1
3428648722,1,4,-5,6,8,37,-8,4,1
3428648722,-3,-8,0,-5,-8,-24,2,-2,1
3428663759,-3,8,0,-3,-6,-3,-15,-2,1
3428663759,8,-1,2,2,5,23,18,6,1
3428664497,-4,0,0,0,-1,11,-26,-10,1
3428664497,-6,-4,-2,0,-1,-41,4,6,1
3428686250,8,-1,-1,0,2,39,-16,-5,1
3428686250,-1,-12,-3,-2,-2,11,9,-3,1
3428687018,-3,20,-3,-2,-2,-44,4,2,1
3428687018,3,4,-5,3,0,38,23,2,1
3428700611,-7,-18,1,-2,-4,-21,-1,1,1
3428700611,-2,1,1,2,0,-18,-6,-7,1
3428708768,2,-4,0,1,1,20,7,0,1
3428708768,-2,7,-3,-3,-3,-9,-28,-2,1
3428723741,0,-5,-5,2,5,13,12,2,1
3428723741,0,-4,-1,0,0,-3,-7,0,1
3428724484,-2,-5,2,-2,-1,7,3,-3,1
3428724484,-2,1,-1,-5,-8,-34,14,5,1
3428746331,3,-1,-2,3,3,26,-19,-5,1
3428746331,1,11,3,-1,-1,20,-5,-4,1
3428747018,-12,-39,-6,-3,-5,-11,-7,-2,1
3428747018,4,14,-4,2,8,36,5,-11,1
3428760644,-3,-4,-1,-4,-3,12,7,2,1
3428760644,-3,3,-4,0,-1,-29,-25,-5,1
3428776308,3,4,2,-1,2,-14,28,6,1
3428776308,2,4,-2,1,-1,26,-19,2,1
3428783772,-5,-2,2,0,0,-12,-41,-4,1
3428783772,12,7,-4,6,6,29,75,2,1
3428784553,1,-2,-1,-1,-3,-10,-5,7,1
3428784553,-3,6,0,1,-1,-15,-2,-3,1
3428806182,2,0,0,0,4,14,17,1,1
3428806182,-2,-8,0,0,4,-29,6,1,1
3428807000,3,4,2,-1,2,32,-21,-3,1
3428807000,5,-1,1,2,0,14,73,7,1
3428829499,-5,2,-4,-1,3,6,-42,-11,1
3428829499,-9,-2,2,-5,-7,-3,-34,-2,1
3428830239,4,3,-2,-2,2,8,2,-2,1
3428830239,-5,-5,-2,-2,-3,14,-26,-2,1
3428843817,0,1,-1,2,2,-42,13,3,1
3428843817,-1,-10,-2,-2,-2,-15,19,0,1
3428844540,0,-2,5,-1,0,8,-21,0,1
3428844540,-2,5,2,-7,-10,-35,-18,-5,1
3428866326,5,-5,-4,4,3,24,40,6,1
3428866326,-3,7,0,0,-3,-6,-14,-6,1
3428867084,-1,0,3,1,-2,-9,21,-5,1
3428867084,5,-3,-1,0,2,-9,-22,2,1
3428889394,-2,0,1,-3,-5,-4,16,-2,1
3428889394,-6,-6,3,1,2,-2,-17,-5,1
3428890149,-3,4,-1,-2,5,29,22,-1,1
3428890149,-4,-4,-2,-2,-4,-12,-17,-2,1
3428903823,1,12,1,-1,-3,-17,1,0,1
3428903823,-1,-7,-1,1,-4,19,-18,0,1
3428904577,0,10,-2,0,-5,-38,-16,2,1
3428904577,-5,-8,3,-1,1,8,4,-2,1
3428926195,3,3,0,-3,-1,-15,2,6,1
3428926195,-3,-7,0,0,-1,13,-5,-1,1
3428926969,1,3,-1,3,0,-22,-20,-2,1
3428926969,-4,-2,6,-5,-4,0,-17,3,1
3428949394,-5,-24,-4,-1,0,-13,3,-6,1
3428949394,2,1,4,1,2,5,12,1,1
3428950234,-2,-3,-3,-4,-3,2,-46,-5,1
3428950234,5,-1,-4,5,5,15,82,6,1
3428963813,2,9,1,2,3,1,-12,3,1
3428963813,-4,-4,1,-1,0,-12,5,3,1
3428964567,1,-2,-1,-3,-5,3,9,0,1
3428964567,0,6,3,1,0,-11,-6,-2,1
3428986322,-5,-2,2,-4,-4,-23,-18,-1,1
3428986322,-2,3,-4,0,-2,-11,2,-4,1
3428987051,4,4,0,1,0,-18,22,3,1
3428987051,-3,-2,-2,3,3,-4,-29,-5,1
3429009420,1,-8,2,1,1,-22,42,4,1
3429009420,1,4,-3,-2,-3,9,-15,-7,1
3429010130,-2,-2,-1,-2,-2,-3,4,0,1
3429010130,-2,-4,2,0,-3,-15,-11,-3,1
3429023804,9,2,-1,1,1,14,38,11,1
3429023804,0,5,1,-6,-4,-12,-31,-8,1
3429024476,-1,-9,-6,3,2,33,11,0,1
3429024476,1,-3,-1,-3,-3,-12,-12,3,1
3429046203,-4,2,1,-4,-3,-3,-8,-4,1
3429046203,-1,-6,-3,0,-4,-2,4,3,1
3429046972,-2,8,1,1,4,5,-25,-2,1
3429046972,1,4,-5,-1,-3,-2,10,3,1
3429069396,-7,-5,-2,-4,-2,22,-40,-5,1
3429069396,2,-8,0,-3,3,-11,3,4,1
3429070197,-1,6,1,1,3,11,-12,-1,1
3429070197,5,3,-5,1,-1,19,8,-3,1
3429083796,-7,-8,0,3,1,-11,-38,-4,1
3429083796,8,9,4,-3,-6,-19,10,1,1
3429084452,-16,-28,1,-6,-7,-3,22,2,1
3429084452,4,5,3,3,3,1,-3,-4,1
3429106238,3,15,-4,3,-1,-6,-12,-5,1
3429106238,-1,-33,-5,3,8,46,36,6,1
3429107059,2,15,-1,-1,-2,-4,-37,4,1
3429107059,1,-18,4,-9,-3,-26,14,-1,1
3429136925,-1,7,2,-3,-6,-36,-3,-7,1
3429136925,5,1,-2,2,5,11,-6,4,1
3429137708,3,5,-2,1,0,12,4,0,1
3429137708,-5,-2,-1,1,3,11,-15,-2,1
3429143679,-1,1,2,-2,-5,-11,13,2,1
3429143679,2,4,-3,5,11,46,4,1,1
3429144512,1,-3,-1,-1,-3,12,24,-6,1
3429144512,-3,5,-1,-1,-4,-28,-30,-1,1
3429166182,2,1,1,-1,0,32,-2,-4,1
3429166182,2,3,-1,2,-3,-6,37,5,1
3429167027,-3,2,1,0,1,-21,-21,0,1
3429167027,-1,-8,-1,1,0,29,12,-6,1
3429188701,6,9,-1,-2,-1,-10,13,2,1
3429188701,-11,-14,1,-5,-10,-16,-32,-4,1
3429189513,1,18,5,-4,-3,16,-33,-2,1
3429189513,-3,-10,1,-6,-3,-60,20,4,1
3429203733,2,-8,-5,3,4,36,25,-3,1
3429203733,-5,16,4,-5,-9,-28,-19,-4,1
3429204474,8,-7,-1,9,10,30,14,2,1
3429204474,1,6,-2,5,2,6,-27,1,1
3429226347,-2,-10,-2,-3,-7,0,-2,2,1
3429226347,-3,11,5,-5,-5,-18,-4,-3,1
3429226955,-5,-16,-1,0,-2,-2,43,4,1
3429226955,2,23,4,-2,0,8,-21,-9,1
3429248711,4,2,-1,5,6,-5,-3,3,1
3429248711,-4,-3,0,0,0,13,24,3,1
3429249451,3,2,3,-3,-4,-15,24,3,1
3429249451,-10,-20,-3,-5,-3,-15,-25,-4,1
3429263797,-13,2,4,-11,-8,-19,-60,-3,1
3429263797,3,0,-1,3,8,13,12,-3,1
3429264497,1,-1,0,5,-1,-3,-12,-1,1
3429264497,1,3,-1,3,4,-3,13,3,1
3429286145,-3,-29,-1,-3,-5,20,5,-4,1
3429286145,5,9,1,1,0,-10,9,6,1
3429286950,-2,-2,0,0,3,-13,-33,-8,1
3429286950,-5,-4,1,-4,-5,20,-10,-3,1
3429308833,4,9,4,4,4,2,26,7,1
3429308833,-2,6,-4,1,0,6,-43,-8,1
3429309508,-1,3,3,0,2,23,10,-5,1
3429309508,-7,-13,0,-1,-5,-1,-2,-3,1
3429331877,-1,3,-6,-1,-6,-10,17,1,1
3429331877,7,0,3,1,6,-3,-5,3,1
3429332635,6,10,-3,0,-5,-2,-4,0,1
3429332635,1,-11,-4,3,3,-7,47,1,1
3429354381,-2,19,3,1,1,8,-13,-5,1
3429354381,-7,-18,-3,-2,-7,-22,3,-2,1
3429355199,1,-12,1,-5,-5,-23,2,1,1
3429355199,1,-1,-4,-3,-3,1,-19,9,1
3429368738,-6,4,1,2,5,19,26,1,1
3429368738,-5,-6,-1,-5,-7,-17,-34,-13,1
3429369699,4,-16,-5,3,5,18,41,8,1
3429369699,-9,11,1,-3,0,7,-6,-6,1
3429383695,7,-2,-2,4,5,-5,3,5,1
3429383695,4,22,3,3,2,10,6,2,1
3429384447,-4,-15,-5,-2,-5,-24,3,-3,1
3429384447,8,8,3,6,6,33,17,2,1
3429406151,1,-6,-7,4,5,20,-16,-1,1
3429406151,-1,7,-2,-4,-5,-25,7,-5,1
3429406930,8,5,0,4,4,-14,16,6,1
3429406930,-4,-5,0,0,-2,20,-6,2,1
3429428818,-3,5,4,-1,-1,-11,-26,-4,1
3429428818,-4,-13,-4,0,-3,-11,2,-5,1
3429429542,-6,4,1,-5,-3,0,-9,-1,1
3429429542,7,3,1,1,1,3,5,3,1
3429443076,0,2,1,-3,-2,-22,-5,-4,1
3429443076,9,13,-5,3,3,24,34,10,1
3429451258,-13,-11,-3,-6,-8,-26,-11,-7,1
3429451258,2,-5,0,-1,-1,11,5,4,1
3429466221,3,3,-1,-1,0,4,-19,-1,1
3429466221,-4,-1,2,1,-1,-2,7,-4,1
3429467014,0,9,-5,-1,1,7,-16,0,1
3429467014,-3,-15,-5,-2,-5,15,-3,-4,1
3429488766,5,8,0,2,2,-14,-14,-1,1
3429488766,-2,-16,-4,-1,0,0,53,5,1
3429489518,-1,27,1,1,-1,8,-14,5,1
3429489518,-6,-5,0,-2,-2,-21,-5,-5,1
3429503015,1,-1,-1,-1,-4,-16,2,3,1
3429503015,-10,-18,4,2,6,9,-26,-4,1
3429511228,7,19,-1,0,0,-15,31,3,1
3429511228,0,8,2,0,-2,-24,-25,-14,1
3429526308,-5,2,1,-6,-4,7,16,-2,1
3429526308,4,2,-2,-2,-3,-7,-21,0,1
3429527115,-4,2,2,4,4,7,7,-3,1
3429527115,0,0,0,2,1,12,22,-2,1
3429548731,5,-9,-5,-1,0,28,-2,0,1
3429548731,-4,-2,3,-1,-2,-10,-14,0,1
3429549478,-4,-1,3,-4,-6,-2,-12,0,1
3429549478,11,5,-2,6,12,24,23,2,1
3429563097,-12,-6,2,-6,-8,-42,-5,0,1
3429563097,11,16,-2,3,1,17,30,7,1
3429571217,-12,-36,-3,0,1,8,-34,-6,1
3429571217,3,2,-1,-1,-3,-18,26,6,1
3429586197,-5,1,5,-5,-3,-10,-57,-16,1
3429586197,-4,-2,0,0,2,11,17,-1,1
3429587015,1,3,2,-2,-1,1,-8,4,1
3429587015,-4,-6,2,-1,-3,-28,-21,-3,1
3429609154,5,-7,-2,0,2,41,18,1,1
3429609154,-1,0,2,1,2,-14,-16,0,1
3429609923,-2,-5,-1,-4,-5,-5,-9,1,1
3429609923,-3,0,0,-2,-2,14,-6,5,1
3429623041,3,13,-3,3,0,-31,17,4,1
3429623041,-5,-9,-1,-5,-4,3,-36,-6,1
3429631334,11,14,-3,2,6,13,34,8,1
3429631334,-7,8,-3,-5,-5,-2,4,2,1
3429646291,-1,0,3,6,5,-15,-1,1,1
3429646291,7,2,-5,1,-1,23,33,10,1
3429647032,-1,0,1,3,5,-2,-16,-7,1
3429647032,3,9,-2,-2,1,5,-23,4,1
3429668753,-2,-10,-6,0,2,10,8,-6,1
3429668753,-9,13,1,-6,-10,-30,-32,-5,1
3429669501,2,-15,3,-2,-2,9,36,3,1
3429669501,2,3,-3,5,5,2,-27,5,1
3429683090,1,-13,-3,0,3,29,23,7,1
3429683090,-6,8,7,-1,-1,-20,-22,-2,1
3429691239,2,2,-4,0,-3,15,3,-9,1
3429691239,-6,-13,2,-3,-3,2,4,1,1
3429706262,1,0,-1,-5,-3,12,-19,-8,1
3429706262,3,4,-1,-1,-2,3,-8,7,1
3429707008,-5,9,4,-4,-6,-43,-43,-8,1
3429707008,-4,4,3,2,-1,32,47,6,1
3429728741,-4,0,-1,3,-4,-17,-15,-10,1
3429728741,2,-7,-2,2,3,16,8,1,1
3429729452,-1,7,-1,-4,-6,-11,0,0,1
3429729452,4,4,1,1,5,21,-15,-6,1
3429744494,-5,3,-1,-1,-3,22,9,8,1
3429744494,-9,-21,0,-2,-1,-22,0,-4,1
3429751210,4,9,0,-2,-5,-35,-2,-2,1
3429751210,9,5,-3,6,8,50,42,3,1
3429766251,-10,-21,1,0,5,0,-27,-6,1
3429766251,-1,-4,-2,1,-1,-4,14,0,1
3429767021,8,-8,-4,3,4,23,81,15,1
3429767021,-5,-3,1,-3,-2,-37,-37,-7,1
3429788739,10,8,0,-1,-4,-43,11,2,1
3429788739,-7,-1,3,-5,-1,-2,-9,-3,1
3429789486,1,-12,-4,2,0,3,-13,4,1
3429789486,0,-3,0,-2,-2,-31,-1,-8,1
3429812032,5,8,-2,4,2,2,16,10,1
3429812032,1,4,1,-1,-1,-12,3,-3,1
3429812678,-2,-26,-2,1,3,49,22,-1,1
3429812678,-3,4,0,-6,-8,-24,-4,-6,1
3429826215,1,6,1,2,6,6,-21,6,1
3429826215,-11,-11,-2,-1,2,31,-39,-7,1
3429826976,-5,12,2,-3,-2,-7,-40,-9,1
3429826976,-3,-12,-1,-4,-5,-19,-12,-2,1
3429848704,-2,-4,4,-3,-7,-30,10,-5,1
3429848704,6,6,0,0,2,29,-15,-2,1
3429849456,3,-3,1,-1,-1,-24,-23,-6,1
3429849456,-4,-6,-5,-1,0,-22,33,5,1
3429871916,-9,9,5,-3,-9,-13,-30,-11,1
3429871916,4,-18,-3,0,-1,-26,18,0,1
3429872679,1,13,2,0,4,19,-19,13,1
3429872679,3,-1,2,1,-3,-2,-20,-4,1
3429886157,-3,12,-4,-1,-2,-19,41,-5,1
3429886157,7,-8,-2,1,3,42,25,8,1
3429886949,-13,-18,-5,2,6,11,-12,-12,1
3429886949,4,6,2,-1,-1,40,6,4,1
3429909048,6,-2,-3,-1,-1,-4,-9,0,1
3429909048,-3,13,-1,2,0,-36,-20,-7,1
3429909522,0,-4,-4,1,1,22,27,3,1
3429909522,2,6,2,2,1,6,-1,6,1
3429931904,0,-8,-1,0,4,25,13,4,1
3429931904,1,9,3,-2,-4,-5,-4,-10,1
3429932794,-1,6,-6,3,5,11,-4,-3,1
3429932794,2,-5,-1,-1,-6,-49,-19,-4,1
3429946208,4,-2,2,1,-2,31,64,6,1
3429946208,-1,0,-3,-4,-4,-41,-17,-2,1
3429947002,5,1,1,0,0,39,67,8,1
3429947002,-8,0,4,-3,-1,-33,-54,-17,1
3429968681,-7,-7,-3,-6,-6,-16,-29,-1,1
3429968681,2,-2,3,0,1,8,7,7,1
3429969487,-9,-1,4,-1,-7,-37,-12,-3,1
3429969487,10,2,-3,4,4,46,27,6,1
3429991990,-5,-3,0,-3,-1,6,-40,7,1
3429991990,-1,-3,-5,1,-2,-8,8,-2,1
3429992715,0,5,-1,-5,2,-7,-22,-5,1
3429992715,0,-1,-4,1,5,5,9,5,1
3430006167,-3,-4,0,-4,0,22,-10,-6,1
3430006167,-11,-8,2,-9,-8,-9,-22,0,1
3430006969,5,7,2,1,1,-16,10,2,1
3430006969,-8,-5,1,-7,-11,-49,-46,-6,1
3430028650,3,-2,3,1,4,21,5,2,1
3430028650,4,16,-5,3,1,4,19,1,1
3430029455,-11,-6,1,-6,-5,-28,-37,-6,1
3430029455,-6,-1,-2,-3,1,-5,18,3,1
3430051959,2,-4,1,-2,-6,-33,-82,-13,1
3430051959,4,6,4,-1,5,64,31,2,1
3430052687,-11,-18,3,-3,-9,-41,-13,-2,1
3430052687,2,38,-2,0,-1,-2,3,-5,1
3430066458,2,-43,-6,9,10,0,73,14,1
3430066458,7,6,-5,2,2,57,6,3,1
3430066999,-5,6,-2,2,3,-42,-30,-3,1
3430066999,-22,-10,11,-17,-25,-103,-24,-14,1
3430088801,15,8,0,2,5,80,62,6,1
3430088801,-7,-7,-1,2,-2,-59,-20,-4,1
3430089541,0,-1,2,-7,-13,-24,10,1,1
3430089541,7,-5,0,5,9,31,18,4,1
3430112016,-5,36,-1,-7,-13,-40,-37,-11,1
3430112016,-4,-26,0,8,8,-14,79,7,1
3430112762,15,24,3,-1,1,20,10,3,1
3430112762,-6,-34,-5,2,0,22,5,7,1
3430126233,0,13,0,-1,-4,-57,2,-4,1
3430126233,6,7,0,-1,-2,29,-12,3,1
3430127005,1,37,-4,0,-1,-62,-3,-3,1
3430127005,-5,-47,-6,2,8,28,-7,0,1
3430148758,14,3,4,9,9,30,53,13,1
3430148758,0,7,-3,0,2,11,-51,-9,1
3430149516,10,7,-2,3,2,41,17,9,1
3430149516,-4,2,-2,-2,-6,3,-16,-2,1
3430171982,-20,-17,-1,-2,5,-12,-64,-10,1
3430171982,-5,0,6,-10,-9,-48,31,-1,1
3430172723,3,-8,-2,1,4,48,-21,-2,1
3430172723,7,15,-1,3,2,38,15,-2,1
3430186216,-3,5,0,-2,-4,-15,-9,-4,1
3430186216,-4,-26,-6,2,3,-29,79,16,1
3430187004,-5,-14,0,-1,-2,-3,-48,-11,1
3430187004,1,0,3,-4,-12,-40,-27,-7,1
3430208737,-5,3,4,-7,-7,-59,47,1,1
3430208737,5,20,2,-3,-9,-5,-28,-16,1
3430209512,-5,-42,1,2,-3,14,27,19,1
3430209512,-8,13,0,-4,1,-31,-9,-9,1
3430231911,3,0,1,-5,-5,-3,-24,-1,1
3430231911,-3,-6,1,-3,-5,-50,20,4,1
3430232615,8,0,0,1,6,20,15,-3,1
3430232615,-10,-1,-1,-2,-2,11,-10,-5,1
3430246188,-1,0,0,-1,-2,-10,19,7,1
3430246188,2,-8,-2,1,4,26,-49,-6,1
3430246964,-1,1,-1,2,-1,-11,15,0,1
3430246964,10,15,-2,7,11,32,18,8,1
3430268707,1,-5,-2,0,-3,5,11,1,1
3430268707,-1,6,-2,0,3,23,-12,-1,1
3430269491,-16,4,-2,-7,-11,-54,-23,-14,1
3430269491,1,-14,-1,1,3,32,28,5,1
3430292013,4,-4,-5,5,6,16,3,6,1
3430292013,2,13,2,0,-2,10,-32,-3,1
3430292714,2,-2,-1,-4,1,15,-12,-5,1
3430292714,4,2,-3,-1,1,0,52,0,1
3430306287,-1,-3,1,2,2,19,5,0,1
3430306287,-10,-14,0,-5,-16,-25,-60,-7,1
3430307031,25,5,-5,13,24,100,101,21,1
3430307031,-2,14,-2,0,1,28,-43,-11,1
3430328768,4,12,-1,-3,-1,7,-27,-5,1
3430328768,-7,-8,2,1,-2,-23,10,-2,1
3430329516,-2,3,-2,4,5,12,-13,-3,1
3430329516,7,14,0,0,7,46,-12,12,1
3430351922,-1,-6,2,-1,1,-2,8,-2,1
3430351922,-3,-3,-6,-2,3,-12,-1,-3,1
3430352663,2,-9,1,-3,-8,-33,8,-5,1
3430352663,-4,9,3,0,4,19,-29,-5,1
3430366207,-4,-3,3,0,-4,-14,25,-1,1
3430366207,6,2,3,1,6,21,4,6,1
3430367023,-2,6,-1,-6,-6,-12,-24,-5,1
3430367023,2,-3,0,0,-6,-42,36,7,1
3430388751,-3,-10,-2,-2,-2,-21,-55,-14,1
3430388751,3,5,-1,-2,2,34,4,10,1
3430389451,-12,14,4,-2,-4,-20,3,-9,1
3430389451,8,-28,-4,0,1,-20,38,5,1
3430411950,0,3,-2,2,-1,68,-1,-4,1
3430411950,12,13,-2,9,17,35,46,10,1
3430412646,-10,-29,4,-3,-6,9,-72,-5,1
3430412646,-1,9,0,-3,-8,-18,-16,-3,1
3430425531,5,-8,0,3,2,-2,39,1,1
3430425531,0,8,1,-2,-3,-24,2,0,1
3430434089,3,-8,-6,-1,-2,-20,5,3,1
3430434089,-3,-7,2,0,4,28,-6,-1,1
3430448763,3,9,2,-1,1,-7,0,6,1
3430448763,-4,-2,3,0,-3,-6,-17,-7,1
3430449492,-6,5,0,-4,-8,-44,11,1,1
3430449492,3,11,0,-2,-3,-2,-8,1,1
3430472377,-5,-13,-5,-2,2,-5,-7,3,1
3430472377,-2,-15,-1,-1,-3,6,3,0,1
3430472679,3,15,5,0,5,33,11,-2,1
3430472679,12,-8,-6,4,2,-4,66,10,1
3430485653,-7,7,0,0,0,21,-25,-2,1
3430485653,-4,-3,0,-2,-5,-12,-14,-4,1
3430493762,-1,-6,-2,1,0,-11,18,-6,1
3430493762,-5,5,3,-5,-4,-15,-39,-1,1
3430508731,-4,-2,-1,-3,-9,-52,29,5,1
3430508731,-4,-16,-2,0,-3,6,-23,-10,1
3430509476,-2,10,-2,-2,-3,2,-3,2,1
3430509476,0,-3,0,-2,-7,-43,-26,-5,1
3430532063,4,-7,-5,5,5,14,35,5,1
3430532063,-8,1,-1,-4,-1,-26,3,0,1
3430532712,3,10,1,2,0,21,-5,2,1
3430532712,-5,-10,-2,1,2,-1,-5,-2,1
3430545578,-2,1,1,-2,-1,0,-33,-7,1
3430545578,-6,10,1,3,-2,-24,9,-7,1
3430553776,0,-12,-2,3,10,36,-3,-3,1
3430553776,3,10,1,5,1,18,26,4,1
3430568693,-2,5,1,-7,-3,5,-36,-6,1
3430568693,2,-11,-1,0,-1,6,-3,3,1
3430569459,5,16,1,1,5,-14,33,3,1
3430569459,-3,0,-1,-1,-4,-20,-46,-13,1
3430591941,-1,5,1,0,1,9,4,-1,1
3430591941,1,9,-2,-2,0,11,7,0,1
3430592663,6,-1,-5,2,-2,5,2,0,1
3430592663,-6,-6,1,-1,2,-7,10,3,1
3430605625,5,2,-1,1,3,13,-25,-1,1
3430605625,-8,-1,-4,-3,-8,-43,-17,-1,1
3430613714,0,-5,0,-1,-1,38,-11,2,1
3430613714,-3,-5,-1,1,8,18,-6,-3,1
3430628695,-2,-2,0,-2,-4,-18,-2,0,1
3430628695,0,1,-2,-2,-4,-14,-18,-3,1
3430629486,-4,-5,0,-3,-4,-25,-5,-3,1
3430629486,1,0,1,2,2,49,8,0,1
3430652035,-2,-9,-5,4,-1,9,3,3,1
3430652035,4,3,2,-2,-1,11,8,-1,1
3430652755,0,-6,2,1,1,-11,-11,3,1
3430652755,-4,6,-1,-2,-4,-13,-5,-4,1
3430665585,4,11,2,0,-1,-14,3,-1,1
3430665585,3,-25,-4,4,4,34,5,-1,1
3430673819,-3,-2,-1,-1,-3,-5,-22,0,1
3430673819,-2,-1,2,-1,-1,-24,18,2,1
3430688646,0,2,1,-4,-5,-2,-7,2,1
3430688646,2,6,3,1,2,0,-2,-4,1
3430689531,-3,0,3,0,-4,-8,9,-2,1
3430689531,2,-1,-4,-1,1,-29,-2,2,1
3430711025,4,-9,-1,9,10,83,83,4,1
3430711025,13,18,-3,5,9,-10,47,7,1
3430718742,-6,-13,-3,-5,1,5,-6,-1,1
3430718742,-2,2,2,-3,-6,-10,-3,0,1
3430734552,5,-2,2,2,5,32,1,-2,1
3430734552,-5,3,-1,-5,-7,-17,-66,-7,1
3430735341,2,9,-3,4,7,26,39,3,1
3430735341,2,-3,-5,-3,-9,-51,-10,1,1
3430748703,-4,-5,4,-5,-3,-11,-14,-2,1
3430748703,1,4,1,1,3,39,6,1,1
3430749501,-4,-5,-1,0,-5,-22,-22,0,1
3430749501,-3,7,3,-1,-3,-2,-4,-1,1
3430771993,-2,6,1,-1,2,-56,19,0,1
3430771993,4,-9,-1,1,1,26,-2,1,1
3430772746,4,6,-1,-2,-7,-23,4,-2,1
3430772746,-2,0,2,-1,5,58,-11,-2,1
3430794448,-1,-3,-1,2,1,11,32,0,1
3430794448,1,0,-4,1,4,-20,4,1,1
3430795185,-6,-5,2,-6,-4,-23,-16,-3,1
3430795185,-4,-7,2,1,-1,16,4,-2,1
3430808791,-1,-2,-6,3,12,10,-50,-5,1
